0;-0.0509644
0.001;-0.0460815
0.002;-0.0418091
0.003;-0.0390625
0.004;-0.0372314
0.005;-0.0369263
0.006;-0.0378418
0.007;-0.0396729
0.008;-0.0424194
0.009;-0.0460815
0.01;-0.0506592
0.011;-0.0558472
0.012;-0.0616455
0.013;-0.0674438
0.014;-0.0735474
0.015;-0.0796509
0.016;-0.0857544
0.017;-0.0915527
0.018;-0.0973511
0.019;-0.103455
0.02;-0.110168
0.021;-0.117188
0.022;-0.124512
0.023;-0.131836
0.024;-0.138855
0.025;-0.144958
0.026;-0.150452
0.027;-0.154724
0.028;-0.158081
0.029;-0.161133
0.03;-0.163574
0.031;-0.166016
0.032;-0.168762
0.033;-0.172119
0.034;-0.176086
0.035;-0.180664
0.036;-0.185242
0.037;-0.190125
0.038;-0.195007
0.039;-0.19989
0.04;-0.204468
0.041;-0.208435
0.042;-0.211792
0.043;-0.214233
0.044;-0.21637
0.045;-0.217896
0.046;-0.219116
0.047;-0.219421
0.048;-0.219727
0.049;-0.219727
0.05;-0.219116
0.051;-0.217896
0.052;-0.21637
0.053;-0.214539
0.054;-0.212708
0.055;-0.211487
0.056;-0.210876
0.057;-0.210571
0.058;-0.210876
0.059;-0.211792
0.06;-0.213013
0.061;-0.214539
0.062;-0.217285
0.063;-0.220947
0.064;-0.22583
0.065;-0.232544
0.066;-0.241699
0.067;-0.252686
0.068;-0.266418
0.069;-0.281982
0.07;-0.299988
0.071;-0.319519
0.072;-0.339966
0.073;-0.361023
0.074;-0.380859
0.075;-0.399475
0.076;-0.415649
0.077;-0.429382
0.078;-0.440063
0.079;-0.447388
0.08;-0.450745
0.081;-0.450745
0.082;-0.446777
0.083;-0.438538
0.084;-0.42511
0.085;-0.405884
0.086;-0.379639
0.087;-0.345764
0.088;-0.303955
0.089;-0.254211
0.09;-0.196533
0.091;-0.13092
0.092;-0.0570679
0.093;0.0250244
0.094;0.115051
0.095;0.212708
0.096;0.316162
0.097;0.422363
0.098;0.527954
0.099;0.630188
0.1;0.726318
0.101;0.815125
0.102;0.895996
0.103;0.968018
0.104;1.03058
0.105;1.08307
0.106;1.12427
0.107;1.15356
0.108;1.16943
0.109;1.17035
0.11;1.1554
0.111;1.12457
0.112;1.07758
0.113;1.01501
0.114;0.937805
0.115;0.847473
0.116;0.746155
0.117;0.636597
0.118;0.52124
0.119;0.403442
0.12;0.285034
0.121;0.168762
0.122;0.0561523
0.123;-0.0512695
0.124;-0.151978
0.125;-0.245056
0.126;-0.330505
0.127;-0.407715
0.128;-0.476074
0.129;-0.534973
0.13;-0.583801
0.131;-0.622864
0.132;-0.652466
0.133;-0.672913
0.134;-0.685425
0.135;-0.690613
0.136;-0.690308
0.137;-0.684814
0.138;-0.675354
0.139;-0.661926
0.14;-0.645447
0.141;-0.626526
0.142;-0.606079
0.143;-0.584412
0.144;-0.562744
0.145;-0.541077
0.146;-0.520325
0.147;-0.500793
0.148;-0.482788
0.149;-0.465698
0.15;-0.449524
0.151;-0.43335
0.152;-0.41748
0.153;-0.402222
0.154;-0.387573
0.155;-0.374146
0.156;-0.361938
0.157;-0.351257
0.158;-0.342102
0.159;-0.334473
0.16;-0.328369
0.161;-0.323181
0.162;-0.318604
0.163;-0.314636
0.164;-0.310974
0.165;-0.307007
0.166;-0.303345
0.167;-0.299683
0.168;-0.296631
0.169;-0.294495
0.17;-0.293579
0.171;-0.293579
0.172;-0.2948
0.173;-0.296631
0.174;-0.299377
0.175;-0.302429
0.176;-0.305481
0.177;-0.307922
0.178;-0.309448
0.179;-0.309448
0.18;-0.307922
0.181;-0.304871
0.182;-0.300598
0.183;-0.296326
0.184;-0.292053
0.185;-0.288391
0.186;-0.285339
0.187;-0.282593
0.188;-0.279236
0.189;-0.275269
0.19;-0.270386
0.191;-0.264587
0.192;-0.258484
0.193;-0.25238
0.194;-0.246582
0.195;-0.240784
0.196;-0.235596
0.197;-0.231018
0.198;-0.227356
0.199;-0.224304
0.2;-0.222473
0.201;-0.221558
0.202;-0.221558
0.203;-0.222168
0.204;-0.223083
0.205;-0.224304
0.206;-0.22583
0.207;-0.227051
0.208;-0.227966
0.209;-0.228577
0.21;-0.228577
0.211;-0.228271
0.212;-0.227051
0.213;-0.22522
0.214;-0.223083
0.215;-0.220032
0.216;-0.216675
0.217;-0.213013
0.218;-0.209045
0.219;-0.205383
0.22;-0.201416
0.221;-0.197754
0.222;-0.194397
0.223;-0.19104
0.224;-0.187378
0.225;-0.184021
0.226;-0.181274
0.227;-0.178833
0.228;-0.177307
0.229;-0.176392
0.23;-0.176086
0.231;-0.175781
0.232;-0.175781
0.233;-0.175781
0.234;-0.175781
0.235;-0.176086
0.236;-0.176697
0.237;-0.177307
0.238;-0.178528
0.239;-0.179749
0.24;-0.180664
0.241;-0.180969
0.242;-0.180359
0.243;-0.179138
0.244;-0.177612
0.245;-0.175476
0.246;-0.172729
0.247;-0.169678
0.248;-0.166321
0.249;-0.162354
0.25;-0.158386
0.251;-0.153809
0.252;-0.149231
0.253;-0.144958
0.254;-0.140991
0.255;-0.137634
0.256;-0.135193
0.257;-0.133667
0.258;-0.133362
0.259;-0.133362
0.26;-0.133972
0.261;-0.134888
0.262;-0.135498
0.263;-0.136108
0.264;-0.137024
0.265;-0.137939
0.266;-0.139771
0.267;-0.141602
0.268;-0.143433
0.269;-0.145264
0.27;-0.146484
0.271;-0.147705
0.272;-0.148315
0.273;-0.148621
0.274;-0.14801
0.275;-0.14679
0.276;-0.144958
0.277;-0.142517
0.278;-0.13916
0.279;-0.134888
0.28;-0.130005
0.281;-0.124817
0.282;-0.119934
0.283;-0.115051
0.284;-0.111084
0.285;-0.107727
0.286;-0.10498
0.287;-0.102539
0.288;-0.100403
0.289;-0.098877
0.29;-0.0976562
0.291;-0.0970459
0.292;-0.0970459
0.293;-0.0979614
0.294;-0.0991821
0.295;-0.101013
0.296;-0.102844
0.297;-0.10498
0.298;-0.106812
0.299;-0.109253
0.3;-0.111694
0.301;-0.114136
0.302;-0.116882
0.303;-0.119629
0.304;-0.12207
0.305;-0.124512
0.306;-0.126953
0.307;-0.129395
0.308;-0.131531
0.309;-0.133362
0.31;-0.135193
0.311;-0.136719
0.312;-0.138245
0.313;-0.140076
0.314;-0.141907
0.315;-0.144043
0.316;-0.146179
0.317;-0.148315
0.318;-0.150146
0.319;-0.152283
0.32;-0.154419
0.321;-0.156555
0.322;-0.158691
0.323;-0.160828
0.324;-0.162964
0.325;-0.1651
0.326;-0.167236
0.327;-0.169373
0.328;-0.171814
0.329;-0.174255
0.33;-0.177002
0.331;-0.179749
0.332;-0.182495
0.333;-0.184631
0.334;-0.185852
0.335;-0.186462
0.336;-0.186462
0.337;-0.185852
0.338;-0.184631
0.339;-0.183105
0.34;-0.181274
0.341;-0.180054
0.342;-0.178833
0.343;-0.178223
0.344;-0.178528
0.345;-0.179443
0.346;-0.180664
0.347;-0.181885
0.348;-0.183105
0.349;-0.183716
0.35;-0.184021
0.351;-0.183716
0.352;-0.183105
0.353;-0.181885
0.354;-0.180359
0.355;-0.178833
0.356;-0.177307
0.357;-0.175476
0.358;-0.17334
0.359;-0.171204
0.36;-0.168762
0.361;-0.166016
0.362;-0.162659
0.363;-0.158386
0.364;-0.152893
0.365;-0.146484
0.366;-0.13916
0.367;-0.13092
0.368;-0.121765
0.369;-0.112305
0.37;-0.102844
0.371;-0.0939941
0.372;-0.0857544
0.373;-0.0793457
0.374;-0.0738525
0.375;-0.0698853
0.376;-0.0668335
0.377;-0.0643921
0.378;-0.0628662
0.379;-0.0613403
0.38;-0.0601196
0.381;-0.0588989
0.382;-0.0576782
0.383;-0.0567627
0.384;-0.0561523
0.385;-0.0558472
0.386;-0.0561523
0.387;-0.0570679
0.388;-0.0579834
0.389;-0.0588989
0.39;-0.0601196
0.391;-0.0613403
0.392;-0.0631714
0.393;-0.0650024
0.394;-0.0668335
0.395;-0.0689697
0.396;-0.071106
0.397;-0.0732422
0.398;-0.0753784
0.399;-0.0778198
0.4;-0.0802612
0.401;-0.083313
0.402;-0.0866699
0.403;-0.090332
0.404;-0.0939941
0.405;-0.0982666
0.406;-0.102539
0.407;-0.107117
0.408;-0.112
0.409;-0.117188
0.41;-0.122681
0.411;-0.128479
0.412;-0.134277
0.413;-0.140076
0.414;-0.145874
0.415;-0.151367
0.416;-0.156555
0.417;-0.161743
0.418;-0.166626
0.419;-0.171204
0.42;-0.175781
0.421;-0.180359
0.422;-0.184326
0.423;-0.188293
0.424;-0.191956
0.425;-0.195618
0.426;-0.19928
0.427;-0.203247
0.428;-0.207825
0.429;-0.212708
0.43;-0.217896
0.431;-0.223083
0.432;-0.228271
0.433;-0.232544
0.434;-0.235901
0.435;-0.238342
0.436;-0.239868
0.437;-0.240479
0.438;-0.240479
0.439;-0.240479
0.44;-0.240479
0.441;-0.240784
0.442;-0.240784
0.443;-0.241394
0.444;-0.24231
0.445;-0.244141
0.446;-0.246582
0.447;-0.249939
0.448;-0.254211
0.449;-0.259705
0.45;-0.266418
0.451;-0.274658
0.452;-0.284729
0.453;-0.297546
0.454;-0.3125
0.455;-0.3302
0.456;-0.349731
0.457;-0.370789
0.458;-0.392151
0.459;-0.413208
0.46;-0.43335
0.461;-0.451355
0.462;-0.466614
0.463;-0.478516
0.464;-0.486755
0.465;-0.491638
0.466;-0.491943
0.467;-0.487976
0.468;-0.47821
0.469;-0.462341
0.47;-0.439148
0.471;-0.408325
0.472;-0.368652
0.473;-0.320435
0.474;-0.263062
0.475;-0.196228
0.476;-0.120544
0.477;-0.0360107
0.478;0.0564575
0.479;0.155334
0.48;0.259094
0.481;0.364685
0.482;0.46936
0.483;0.570068
0.484;0.665283
0.485;0.753174
0.486;0.83252
0.487;0.90332
0.488;0.964966
0.489;1.01624
0.49;1.05621
0.491;1.08429
0.492;1.09894
0.493;1.09894
0.494;1.08307
0.495;1.05133
0.496;1.00311
0.497;0.939636
0.498;0.861511
0.499;0.770569
0.5;0.668945
0.501;0.559692
0.502;0.445251
0.503;0.328369
0.504;0.211792
0.505;0.0976562
0.506;-0.012207
0.507;-0.115967
0.508;-0.213013
0.509;-0.302124
0.51;-0.383301
0.511;-0.456543
0.512;-0.52124
0.513;-0.577087
0.514;-0.624084
0.515;-0.661926
0.516;-0.690918
0.517;-0.71106
0.518;-0.723267
0.519;-0.728149
0.52;-0.726624
0.521;-0.719604
0.522;-0.707703
0.523;-0.692139
0.524;-0.673828
0.525;-0.653687
0.526;-0.632935
0.527;-0.611572
0.528;-0.59021
0.529;-0.568848
0.53;-0.547791
0.531;-0.527039
0.532;-0.506897
0.533;-0.487061
0.534;-0.467834
0.535;-0.449829
0.536;-0.432739
0.537;-0.417175
0.538;-0.402832
0.539;-0.390015
0.54;-0.378418
0.541;-0.367737
0.542;-0.357971
0.543;-0.348816
0.544;-0.340881
0.545;-0.333862
0.546;-0.328369
0.547;-0.323792
0.548;-0.32074
0.549;-0.318909
0.55;-0.318298
0.551;-0.318298
0.552;-0.318909
0.553;-0.319824
0.554;-0.32074
0.555;-0.321045
0.556;-0.321655
0.557;-0.32196
0.558;-0.322571
0.559;-0.323486
0.56;-0.324707
0.561;-0.325623
0.562;-0.326843
0.563;-0.327454
0.564;-0.328064
0.565;-0.328064
0.566;-0.327454
0.567;-0.326233
0.568;-0.324707
0.569;-0.322876
0.57;-0.32074
0.571;-0.318298
0.572;-0.316162
0.573;-0.314331
0.574;-0.312805
0.575;-0.311584
0.576;-0.310669
0.577;-0.309753
0.578;-0.308838
0.579;-0.307312
0.58;-0.306091
0.581;-0.303955
0.582;-0.301819
0.583;-0.299377
0.584;-0.296631
0.585;-0.294495
0.586;-0.292969
0.587;-0.291443
0.588;-0.290527
0.589;-0.289917
0.59;-0.289307
0.591;-0.288696
0.592;-0.288391
0.593;-0.288086
0.594;-0.287476
0.595;-0.28656
0.596;-0.285645
0.597;-0.283813
0.598;-0.281677
0.599;-0.278625
0.6;-0.275269
0.601;-0.271606
0.602;-0.267944
0.603;-0.264282
0.604;-0.26062
0.605;-0.256958
0.606;-0.253296
0.607;-0.249939
0.608;-0.246277
0.609;-0.243225
0.61;-0.239868
0.611;-0.237122
0.612;-0.23468
0.613;-0.232239
0.614;-0.230103
0.615;-0.228271
0.616;-0.226746
0.617;-0.22522
0.618;-0.223999
0.619;-0.223083
0.62;-0.222168
0.621;-0.221863
0.622;-0.221863
0.623;-0.222473
0.624;-0.223083
0.625;-0.223999
0.626;-0.22522
0.627;-0.226135
0.628;-0.22644
0.629;-0.226746
0.63;-0.226746
0.631;-0.227051
0.632;-0.227356
0.633;-0.227051
0.634;-0.226135
0.635;-0.224304
0.636;-0.222168
0.637;-0.220032
0.638;-0.21759
0.639;-0.215149
0.64;-0.213318
0.641;-0.210876
0.642;-0.20874
0.643;-0.205994
0.644;-0.202942
0.645;-0.19989
0.646;-0.196533
0.647;-0.192871
0.648;-0.188904
0.649;-0.184937
0.65;-0.180969
0.651;-0.177002
0.652;-0.17334
0.653;-0.169678
0.654;-0.166321
0.655;-0.163269
0.656;-0.160522
0.657;-0.157776
0.658;-0.155029
0.659;-0.152588
0.66;-0.150452
0.661;-0.148315
0.662;-0.146179
0.663;-0.144043
0.664;-0.141907
0.665;-0.13916
0.666;-0.136414
0.667;-0.133667
0.668;-0.130615
0.669;-0.127869
0.67;-0.124817
0.671;-0.121765
0.672;-0.119019
0.673;-0.116577
0.674;-0.114441
0.675;-0.112305
0.676;-0.110779
0.677;-0.109863
0.678;-0.109253
0.679;-0.109253
0.68;-0.109558
0.681;-0.110474
0.682;-0.111694
0.683;-0.113525
0.684;-0.115662
0.685;-0.118103
0.686;-0.121155
0.687;-0.124207
0.688;-0.127258
0.689;-0.13092
0.69;-0.134888
0.691;-0.138855
0.692;-0.143127
0.693;-0.147705
0.694;-0.151672
0.695;-0.15564
0.696;-0.158997
0.697;-0.162354
0.698;-0.1651
0.699;-0.168152
0.7;-0.170898
0.701;-0.17334
0.702;-0.176086
0.703;-0.177917
0.704;-0.179749
0.705;-0.180664
0.706;-0.181274
0.707;-0.18158
0.708;-0.181274
0.709;-0.180969
0.71;-0.180359
0.711;-0.180054
0.712;-0.180054
0.713;-0.180359
0.714;-0.180969
0.715;-0.181274
0.716;-0.181885
0.717;-0.182495
0.718;-0.183105
0.719;-0.183411
0.72;-0.184021
0.721;-0.184326
0.722;-0.184937
0.723;-0.185547
0.724;-0.186768
0.725;-0.187988
0.726;-0.189209
0.727;-0.190735
0.728;-0.191956
0.729;-0.192871
0.73;-0.193176
0.731;-0.192871
0.732;-0.191956
0.733;-0.190735
0.734;-0.188599
0.735;-0.186157
0.736;-0.183105
0.737;-0.179138
0.738;-0.174255
0.739;-0.169067
0.74;-0.163269
0.741;-0.157166
0.742;-0.150757
0.743;-0.144958
0.744;-0.13916
0.745;-0.133972
0.746;-0.129089
0.747;-0.124817
0.748;-0.121155
0.749;-0.118103
0.75;-0.115662
0.751;-0.113831
0.752;-0.112305
0.753;-0.111694
0.754;-0.111694
0.755;-0.112
0.756;-0.112305
0.757;-0.11261
0.758;-0.112915
0.759;-0.11322
0.76;-0.11322
0.761;-0.11261
0.762;-0.111694
0.763;-0.110168
0.764;-0.108337
0.765;-0.106201
0.766;-0.104065
0.767;-0.101318
0.768;-0.098877
0.769;-0.0961304
0.77;-0.0930786
0.771;-0.0900269
0.772;-0.0866699
0.773;-0.0839233
0.774;-0.0817871
0.775;-0.0799561
0.776;-0.0790405
0.777;-0.0784302
0.778;-0.0787354
0.779;-0.0799561
0.78;-0.0820923
0.781;-0.0848389
0.782;-0.088501
0.783;-0.0924683
0.784;-0.0964355
0.785;-0.100708
0.786;-0.10498
0.787;-0.109253
0.788;-0.113525
0.789;-0.117188
0.79;-0.12085
0.791;-0.124512
0.792;-0.128479
0.793;-0.132751
0.794;-0.137024
0.795;-0.142212
0.796;-0.1474
0.797;-0.152893
0.798;-0.158386
0.799;-0.163269
0.8;-0.167236
0.801;-0.170593
0.802;-0.173645
0.803;-0.176697
0.804;-0.179749
0.805;-0.183411
0.806;-0.187073
0.807;-0.19104
0.808;-0.195007
0.809;-0.198975
0.81;-0.202942
0.811;-0.206299
0.812;-0.209656
0.813;-0.212402
0.814;-0.215149
0.815;-0.217285
0.816;-0.218811
0.817;-0.220032
0.818;-0.220947
0.819;-0.221863
0.82;-0.223083
0.821;-0.224304
0.822;-0.22583
0.823;-0.227661
0.824;-0.229797
0.825;-0.231934
0.826;-0.233765
0.827;-0.235596
0.828;-0.237122
0.829;-0.238342
0.83;-0.239868
0.831;-0.241699
0.832;-0.243835
0.833;-0.246277
0.834;-0.249634
0.835;-0.253601
0.836;-0.258789
0.837;-0.265198
0.838;-0.273132
0.839;-0.283203
0.84;-0.29541
0.841;-0.309753
0.842;-0.325623
0.843;-0.343323
0.844;-0.362244
0.845;-0.381775
0.846;-0.400696
0.847;-0.418701
0.848;-0.434875
0.849;-0.448608
0.85;-0.458984
0.851;-0.466309
0.852;-0.470581
0.853;-0.470886
0.854;-0.467224
0.855;-0.458374
0.856;-0.44342
0.857;-0.421448
0.858;-0.391235
0.859;-0.352173
0.86;-0.30365
0.861;-0.245667
0.862;-0.178223
0.863;-0.101624
0.864;-0.0161743
0.865;0.078125
0.866;0.180359
0.867;0.288391
0.868;0.400085
0.869;0.512085
0.87;0.621338
0.871;0.725708
0.872;0.823669
0.873;0.913696
0.874;0.995483
0.875;1.0672
0.876;1.12854
0.877;1.17798
0.878;1.2146
0.879;1.23718
0.88;1.2439
0.881;1.23444
0.882;1.20789
0.883;1.16425
0.884;1.10382
0.885;1.02722
0.886;0.936279
0.887;0.832825
0.888;0.719604
0.889;0.59967
0.89;0.476074
0.891;0.350952
0.892;0.227051
0.893;0.106506
0.894;-0.00915527
0.895;-0.118408
0.896;-0.220032
0.897;-0.313416
0.898;-0.397949
0.899;-0.473328
0.9;-0.538635
0.901;-0.593872
0.902;-0.638428
0.903;-0.672607
0.904;-0.697327
0.905;-0.712585
0.906;-0.719604
0.907;-0.718994
0.908;-0.711975
0.909;-0.699768
0.91;-0.682983
0.911;-0.663147
0.912;-0.641174
0.913;-0.617676
0.914;-0.593567
0.915;-0.569763
0.916;-0.54657
0.917;-0.524597
0.918;-0.503845
0.919;-0.484619
0.92;-0.467224
0.921;-0.45105
0.922;-0.436401
0.923;-0.423279
0.924;-0.411682
0.925;-0.401611
0.926;-0.393066
0.927;-0.385437
0.928;-0.379028
0.929;-0.373535
0.93;-0.368652
0.931;-0.36438
0.932;-0.360413
0.933;-0.357056
0.934;-0.354309
0.935;-0.351868
0.936;-0.350037
0.937;-0.3479
0.938;-0.346069
0.939;-0.343933
0.94;-0.341797
0.941;-0.339355
0.942;-0.336609
0.943;-0.333862
0.944;-0.330505
0.945;-0.327148
0.946;-0.323181
0.947;-0.318909
0.948;-0.315247
0.949;-0.31189
0.95;-0.309448
0.951;-0.307617
0.952;-0.305786
0.953;-0.304565
0.954;-0.302734
0.955;-0.301208
0.956;-0.299377
0.957;-0.297241
0.958;-0.29541
0.959;-0.293274
0.96;-0.291138
0.961;-0.289307
0.962;-0.287476
0.963;-0.285339
0.964;-0.283203
0.965;-0.280457
0.966;-0.27771
0.967;-0.274353
0.968;-0.270386
0.969;-0.266113
0.97;-0.261536
0.971;-0.256958
0.972;-0.25238
0.973;-0.248413
0.974;-0.244751
0.975;-0.241394
0.976;-0.238647
0.977;-0.235596
0.978;-0.233154
0.979;-0.231323
0.98;-0.229492
0.981;-0.228577
0.982;-0.227966
0.983;-0.227661
0.984;-0.227661
0.985;-0.228271
0.986;-0.228882
0.987;-0.229492
0.988;-0.229797
0.989;-0.229797
0.99;-0.229797
0.991;-0.229492
0.992;-0.229187
0.993;-0.228577
0.994;-0.227966
0.995;-0.227356
0.996;-0.226746
0.997;-0.22644
0.998;-0.22644
0.999;-0.22644
1;-0.226135
1.001;-0.22583
1.002;-0.224915
1.003;-0.223389
1.004;-0.221863
1.005;-0.220337
1.006;-0.219421
1.007;-0.218506
1.008;-0.21759
1.009;-0.21698
1.01;-0.21637
1.011;-0.215454
1.012;-0.214233
1.013;-0.212402
1.014;-0.209961
1.015;-0.207214
1.016;-0.204468
1.017;-0.201416
1.018;-0.198669
1.019;-0.195923
1.02;-0.193481
1.021;-0.191345
1.022;-0.189514
1.023;-0.187683
1.024;-0.186462
1.025;-0.185242
1.026;-0.184631
1.027;-0.184021
1.028;-0.183716
1.029;-0.183716
1.03;-0.183716
1.031;-0.183716
1.032;-0.184021
1.033;-0.184021
1.034;-0.184021
1.035;-0.183105
1.036;-0.18158
1.037;-0.179443
1.038;-0.176697
1.039;-0.17334
1.04;-0.169678
1.041;-0.16571
1.042;-0.161133
1.043;-0.156555
1.044;-0.151672
1.045;-0.146484
1.046;-0.140991
1.047;-0.135803
1.048;-0.130615
1.049;-0.125427
1.05;-0.12085
1.051;-0.116882
1.052;-0.11322
1.053;-0.110779
1.054;-0.108643
1.055;-0.107422
1.056;-0.106506
1.057;-0.105896
1.058;-0.105591
1.059;-0.105896
1.06;-0.106506
1.061;-0.107422
1.062;-0.108643
1.063;-0.109863
1.064;-0.110779
1.065;-0.111389
1.066;-0.112
1.067;-0.112
1.068;-0.112
1.069;-0.111694
1.07;-0.111389
1.071;-0.111084
1.072;-0.110779
1.073;-0.110474
1.074;-0.110474
1.075;-0.110474
1.076;-0.110779
1.077;-0.111694
1.078;-0.11261
1.079;-0.113831
1.08;-0.115051
1.081;-0.116882
1.082;-0.119019
1.083;-0.12207
1.084;-0.125427
1.085;-0.128784
1.086;-0.132446
1.087;-0.136108
1.088;-0.139465
1.089;-0.142517
1.09;-0.145264
1.091;-0.14801
1.092;-0.150452
1.093;-0.152893
1.094;-0.155029
1.095;-0.15686
1.096;-0.158386
1.097;-0.159607
1.098;-0.160522
1.099;-0.161133
1.1;-0.161438
1.101;-0.161743
1.102;-0.161743
1.103;-0.162048
1.104;-0.162354
1.105;-0.162964
1.106;-0.163879
1.107;-0.164795
1.108;-0.16571
1.109;-0.166931
1.11;-0.168152
1.111;-0.169373
1.112;-0.170898
1.113;-0.172729
1.114;-0.174866
1.115;-0.177002
1.116;-0.179443
1.117;-0.18158
1.118;-0.183105
1.119;-0.183716
1.12;-0.183716
1.121;-0.183105
1.122;-0.18219
1.123;-0.180969
1.124;-0.179138
1.125;-0.177307
1.126;-0.174561
1.127;-0.171509
1.128;-0.167542
1.129;-0.162964
1.13;-0.157776
1.131;-0.152283
1.132;-0.146484
1.133;-0.140686
1.134;-0.134583
1.135;-0.128784
1.136;-0.123291
1.137;-0.117798
1.138;-0.112915
1.139;-0.108032
1.14;-0.104065
1.141;-0.100708
1.142;-0.0979614
1.143;-0.0958252
1.144;-0.0942993
1.145;-0.0927734
1.146;-0.0918579
1.147;-0.0912476
1.148;-0.090332
1.149;-0.0897217
1.15;-0.0888062
1.151;-0.0878906
1.152;-0.0866699
1.153;-0.085144
1.154;-0.0830078
1.155;-0.0808716
1.156;-0.078125
1.157;-0.0756836
1.158;-0.0732422
1.159;-0.071106
1.16;-0.0689697
1.161;-0.0671387
1.162;-0.0650024
1.163;-0.0631714
1.164;-0.0613403
1.165;-0.0598145
1.166;-0.0585938
1.167;-0.0579834
1.168;-0.0576782
1.169;-0.0579834
1.17;-0.0588989
1.171;-0.0604248
1.172;-0.0628662
1.173;-0.0656128
1.174;-0.0692749
1.175;-0.0732422
1.176;-0.0775146
1.177;-0.0823975
1.178;-0.0869751
1.179;-0.0915527
1.18;-0.0961304
1.181;-0.100403
1.182;-0.10498
1.183;-0.109863
1.184;-0.114746
1.185;-0.119934
1.186;-0.125427
1.187;-0.130615
1.188;-0.135803
1.189;-0.140686
1.19;-0.145569
1.191;-0.150146
1.192;-0.155029
1.193;-0.160522
1.194;-0.166016
1.195;-0.171204
1.196;-0.176697
1.197;-0.18158
1.198;-0.186462
1.199;-0.190735
1.2;-0.195007
1.201;-0.198975
1.202;-0.202637
1.203;-0.206299
1.204;-0.209961
1.205;-0.213623
1.206;-0.216675
1.207;-0.219421
1.208;-0.221863
1.209;-0.223694
1.21;-0.22522
1.211;-0.226135
1.212;-0.227051
1.213;-0.227661
1.214;-0.227661
1.215;-0.227356
1.216;-0.226746
1.217;-0.22583
1.218;-0.22522
1.219;-0.224915
1.22;-0.224915
1.221;-0.22522
1.222;-0.225525
1.223;-0.22644
1.224;-0.227661
1.225;-0.229187
1.226;-0.231628
1.227;-0.23468
1.228;-0.238953
1.229;-0.244141
1.23;-0.250854
1.231;-0.259094
1.232;-0.269165
1.233;-0.281372
1.234;-0.295715
1.235;-0.31189
1.236;-0.32959
1.237;-0.348511
1.238;-0.368042
1.239;-0.387268
1.24;-0.406189
1.241;-0.423279
1.242;-0.438232
1.243;-0.450134
1.244;-0.458374
1.245;-0.463257
1.246;-0.463867
1.247;-0.460205
1.248;-0.451355
1.249;-0.437012
1.25;-0.41626
1.251;-0.388184
1.252;-0.351868
1.253;-0.306396
1.254;-0.25116
1.255;-0.185547
1.256;-0.109863
1.257;-0.0241089
1.258;0.0714111
1.259;0.175476
1.26;0.287476
1.261;0.404968
1.262;0.525818
1.263;0.646667
1.264;0.764771
1.265;0.87738
1.266;0.983276
1.267;1.08063
1.268;1.16821
1.269;1.24481
1.27;1.3089
1.271;1.35895
1.272;1.39374
1.273;1.41174
1.274;1.41144
1.275;1.39191
1.276;1.35315
1.277;1.29486
1.278;1.21796
1.279;1.12396
1.28;1.01532
1.281;0.89386
1.282;0.763855
1.283;0.627747
1.284;0.488892
1.285;0.350342
1.286;0.214233
1.287;0.0827026
1.288;-0.0424194
1.289;-0.159607
1.29;-0.267639
1.291;-0.36499
1.292;-0.45105
1.293;-0.524902
1.294;-0.586548
1.295;-0.635986
1.296;-0.673218
1.297;-0.698853
1.298;-0.714111
1.299;-0.71991
1.3;-0.717468
1.301;-0.708008
1.302;-0.692749
1.303;-0.672607
1.304;-0.649109
1.305;-0.623169
1.306;-0.595703
1.307;-0.567627
1.308;-0.539551
1.309;-0.512695
1.31;-0.487061
1.311;-0.463562
1.312;-0.441895
1.313;-0.422058
1.314;-0.404053
1.315;-0.387268
1.316;-0.372314
1.317;-0.358582
1.318;-0.346985
1.319;-0.336914
1.32;-0.328674
1.321;-0.322266
1.322;-0.316772
1.323;-0.3125
1.324;-0.308533
1.325;-0.305176
1.326;-0.301514
1.327;-0.298157
1.328;-0.295105
1.329;-0.292358
1.33;-0.289612
1.331;-0.28717
1.332;-0.285034
1.333;-0.282898
1.334;-0.280762
1.335;-0.278625
1.336;-0.276489
1.337;-0.274048
1.338;-0.270996
1.339;-0.267944
1.34;-0.264893
1.341;-0.261536
1.342;-0.258484
1.343;-0.255737
1.344;-0.253296
1.345;-0.251465
1.346;-0.249939
1.347;-0.249329
1.348;-0.249023
1.349;-0.249023
1.35;-0.248718
1.351;-0.248413
1.352;-0.248108
1.353;-0.247192
1.354;-0.246277
1.355;-0.245361
1.356;-0.244141
1.357;-0.243225
1.358;-0.242004
1.359;-0.240784
1.36;-0.239258
1.361;-0.237732
1.362;-0.235901
1.363;-0.234375
1.364;-0.232544
1.365;-0.231018
1.366;-0.229492
1.367;-0.228271
1.368;-0.227356
1.369;-0.226746
1.37;-0.22644
1.371;-0.22644
1.372;-0.227051
1.373;-0.227661
1.374;-0.228577
1.375;-0.229492
1.376;-0.230103
1.377;-0.230408
1.378;-0.230713
1.379;-0.231323
1.38;-0.231628
1.381;-0.232239
1.382;-0.232544
1.383;-0.232849
1.384;-0.232849
1.385;-0.232239
1.386;-0.231323
1.387;-0.229797
1.388;-0.227966
1.389;-0.225525
1.39;-0.222168
1.391;-0.218506
1.392;-0.213928
1.393;-0.209961
1.394;-0.205994
1.395;-0.202332
1.396;-0.19928
1.397;-0.196838
1.398;-0.194702
1.399;-0.193176
1.4;-0.192261
1.401;-0.191345
1.402;-0.190735
1.403;-0.19043
1.404;-0.190125
1.405;-0.189819
1.406;-0.190125
1.407;-0.19043
1.408;-0.19104
1.409;-0.19165
1.41;-0.192261
1.411;-0.193176
1.412;-0.194397
1.413;-0.195618
1.414;-0.196838
1.415;-0.197449
1.416;-0.197449
1.417;-0.196838
1.418;-0.195618
1.419;-0.193481
1.42;-0.19104
1.421;-0.187988
1.422;-0.184937
1.423;-0.18158
1.424;-0.177917
1.425;-0.174561
1.426;-0.170898
1.427;-0.167236
1.428;-0.163574
1.429;-0.160217
1.43;-0.157166
1.431;-0.154419
1.432;-0.151978
1.433;-0.149841
1.434;-0.14801
1.435;-0.146179
1.436;-0.144348
1.437;-0.142212
1.438;-0.140076
1.439;-0.137939
1.44;-0.135803
1.441;-0.133667
1.442;-0.131836
1.443;-0.130005
1.444;-0.128174
1.445;-0.126343
1.446;-0.124207
1.447;-0.12207
1.448;-0.119629
1.449;-0.117493
1.45;-0.115051
1.451;-0.11322
1.452;-0.111389
1.453;-0.109558
1.454;-0.108337
1.455;-0.107422
1.456;-0.106506
1.457;-0.106201
1.458;-0.105896
1.459;-0.106506
1.46;-0.107117
1.461;-0.107727
1.462;-0.108643
1.463;-0.109558
1.464;-0.110474
1.465;-0.112
1.466;-0.113831
1.467;-0.115662
1.468;-0.118103
1.469;-0.12085
1.47;-0.123901
1.471;-0.127258
1.472;-0.130615
1.473;-0.133667
1.474;-0.136108
1.475;-0.13855
1.476;-0.140381
1.477;-0.141907
1.478;-0.143127
1.479;-0.144653
1.48;-0.145874
1.481;-0.147095
1.482;-0.14801
1.483;-0.148315
1.484;-0.14801
1.485;-0.147705
1.486;-0.147095
1.487;-0.146484
1.488;-0.145874
1.489;-0.144958
1.49;-0.143433
1.491;-0.141907
1.492;-0.140076
1.493;-0.137939
1.494;-0.136108
1.495;-0.133972
1.496;-0.132446
1.497;-0.13092
1.498;-0.13031
1.499;-0.13031
1.5;-0.131226
1.501;-0.133057
1.502;-0.135193
1.503;-0.137939
1.504;-0.140991
1.505;-0.144043
1.506;-0.1474
1.507;-0.151062
1.508;-0.154419
1.509;-0.158081
1.51;-0.161743
1.511;-0.16571
1.512;-0.169678
1.513;-0.173645
1.514;-0.177307
1.515;-0.180359
1.516;-0.1828
1.517;-0.184021
1.518;-0.184021
1.519;-0.183411
1.52;-0.182495
1.521;-0.180664
1.522;-0.178528
1.523;-0.175781
1.524;-0.172729
1.525;-0.169678
1.526;-0.166321
1.527;-0.162659
1.528;-0.158997
1.529;-0.155334
1.53;-0.151672
1.531;-0.14801
1.532;-0.144043
1.533;-0.140381
1.534;-0.136719
1.535;-0.133057
1.536;-0.129395
1.537;-0.126038
1.538;-0.122681
1.539;-0.119629
1.54;-0.116882
1.541;-0.114746
1.542;-0.11261
1.543;-0.110474
1.544;-0.108643
1.545;-0.106506
1.546;-0.104065
1.547;-0.101318
1.548;-0.0982666
1.549;-0.0949097
1.55;-0.0918579
1.551;-0.088501
1.552;-0.085144
1.553;-0.0817871
1.554;-0.0787354
1.555;-0.0753784
1.556;-0.0720215
1.557;-0.0686646
1.558;-0.0653076
1.559;-0.0616455
1.56;-0.0579834
1.561;-0.0546265
1.562;-0.0515747
1.563;-0.0485229
1.564;-0.0454712
1.565;-0.0427246
1.566;-0.0402832
1.567;-0.038147
1.568;-0.0366211
1.569;-0.0357056
1.57;-0.0354004
1.571;-0.0360107
1.572;-0.0372314
1.573;-0.0396729
1.574;-0.0430298
1.575;-0.0466919
1.576;-0.0506592
1.577;-0.0549316
1.578;-0.0595093
1.579;-0.0640869
1.58;-0.0686646
1.581;-0.0738525
1.582;-0.0790405
1.583;-0.0845337
1.584;-0.0900269
1.585;-0.0949097
1.586;-0.0994873
1.587;-0.10376
1.588;-0.107422
1.589;-0.111389
1.59;-0.115356
1.591;-0.119324
1.592;-0.123291
1.593;-0.127258
1.594;-0.131531
1.595;-0.135803
1.596;-0.140381
1.597;-0.145264
1.598;-0.150146
1.599;-0.155945
1.6;-0.161743
1.601;-0.167542
1.602;-0.173645
1.603;-0.179749
1.604;-0.185852
1.605;-0.19165
1.606;-0.197754
1.607;-0.203552
1.608;-0.209045
1.609;-0.213928
1.61;-0.218201
1.611;-0.221863
1.612;-0.225525
1.613;-0.228271
1.614;-0.230713
1.615;-0.232239
1.616;-0.233154
1.617;-0.233765
1.618;-0.233765
1.619;-0.233765
1.62;-0.233459
1.621;-0.232849
1.622;-0.231934
1.623;-0.230713
1.624;-0.229797
1.625;-0.228882
1.626;-0.228882
1.627;-0.229797
1.628;-0.231323
1.629;-0.234375
1.63;-0.238342
1.631;-0.243835
1.632;-0.25116
1.633;-0.26001
1.634;-0.270996
1.635;-0.284119
1.636;-0.298767
1.637;-0.315247
1.638;-0.332642
1.639;-0.350952
1.64;-0.369263
1.641;-0.386963
1.642;-0.403442
1.643;-0.418396
1.644;-0.430603
1.645;-0.439758
1.646;-0.445557
1.647;-0.447693
1.648;-0.444946
1.649;-0.437622
1.65;-0.423889
1.651;-0.403748
1.652;-0.375977
1.653;-0.339661
1.654;-0.294495
1.655;-0.239258
1.656;-0.17395
1.657;-0.0985718
1.658;-0.0131226
1.659;0.0820923
1.66;0.186157
1.661;0.298462
1.662;0.417175
1.663;0.540161
1.664;0.664062
1.665;0.786743
1.666;0.905151
1.667;1.01776
1.668;1.12274
1.669;1.21826
1.67;1.3031
1.671;1.37573
1.672;1.43494
1.673;1.47919
1.674;1.50696
1.675;1.51642
1.676;1.50696
1.677;1.47675
1.678;1.42639
1.679;1.35681
1.68;1.26892
1.681;1.16516
1.682;1.04797
1.683;0.920105
1.684;0.784607
1.685;0.644531
1.686;0.50293
1.687;0.361633
1.688;0.223389
1.689;0.0900269
1.69;-0.0363159
1.691;-0.154419
1.692;-0.262756
1.693;-0.359802
1.694;-0.445251
1.695;-0.517883
1.696;-0.578003
1.697;-0.62561
1.698;-0.661316
1.699;-0.68573
1.7;-0.700073
1.701;-0.704956
1.702;-0.701904
1.703;-0.692139
1.704;-0.67627
1.705;-0.656128
1.706;-0.632935
1.707;-0.6073
1.708;-0.580444
1.709;-0.553589
1.71;-0.527039
1.711;-0.501404
1.712;-0.477295
1.713;-0.454712
1.714;-0.434265
1.715;-0.415344
1.716;-0.398254
1.717;-0.382996
1.718;-0.369568
1.719;-0.357361
1.72;-0.34668
1.721;-0.337219
1.722;-0.328979
1.723;-0.321655
1.724;-0.315247
1.725;-0.309753
1.726;-0.305176
1.727;-0.301819
1.728;-0.299683
1.729;-0.298157
1.73;-0.297241
1.731;-0.296936
1.732;-0.297241
1.733;-0.297546
1.734;-0.298462
1.735;-0.299377
1.736;-0.299683
1.737;-0.299988
1.738;-0.299377
1.739;-0.298767
1.74;-0.297546
1.741;-0.296326
1.742;-0.295105
1.743;-0.293579
1.744;-0.291748
1.745;-0.289917
1.746;-0.287781
1.747;-0.285645
1.748;-0.282898
1.749;-0.279846
1.75;-0.276489
1.751;-0.273132
1.752;-0.269165
1.753;-0.265503
1.754;-0.261536
1.755;-0.257568
1.756;-0.253906
1.757;-0.250549
1.758;-0.248108
1.759;-0.246582
1.76;-0.245667
1.761;-0.245056
1.762;-0.244751
1.763;-0.244141
1.764;-0.24353
1.765;-0.242615
1.766;-0.241394
1.767;-0.240479
1.768;-0.239258
1.769;-0.238037
1.77;-0.236816
1.771;-0.235596
1.772;-0.23407
1.773;-0.232239
1.774;-0.230408
1.775;-0.227966
1.776;-0.22522
1.777;-0.222168
1.778;-0.218811
1.779;-0.215454
1.78;-0.212097
1.781;-0.20874
1.782;-0.205688
1.783;-0.202637
1.784;-0.19989
1.785;-0.198059
1.786;-0.196838
1.787;-0.196533
1.788;-0.196533
1.789;-0.197144
1.79;-0.197754
1.791;-0.198059
1.792;-0.198669
1.793;-0.199585
1.794;-0.200195
1.795;-0.201111
1.796;-0.202026
1.797;-0.202637
1.798;-0.203552
1.799;-0.204163
1.8;-0.204773
1.801;-0.205078
1.802;-0.205688
1.803;-0.205994
1.804;-0.205994
1.805;-0.205994
1.806;-0.205688
1.807;-0.205078
1.808;-0.204163
1.809;-0.202942
1.81;-0.201111
1.811;-0.199585
1.812;-0.197754
1.813;-0.196228
1.814;-0.195007
1.815;-0.193787
1.816;-0.192566
1.817;-0.191345
1.818;-0.189819
1.819;-0.188293
1.82;-0.186768
1.821;-0.184937
1.822;-0.183105
1.823;-0.181274
1.824;-0.179138
1.825;-0.177002
1.826;-0.174561
1.827;-0.172119
1.828;-0.169678
1.829;-0.166626
1.83;-0.163574
1.831;-0.160217
1.832;-0.156555
1.833;-0.152893
1.834;-0.149536
1.835;-0.146179
1.836;-0.143127
1.837;-0.140381
1.838;-0.137634
1.839;-0.134888
1.84;-0.131531
1.841;-0.127869
1.842;-0.123901
1.843;-0.119629
1.844;-0.115356
1.845;-0.111389
1.846;-0.107422
1.847;-0.10376
1.848;-0.100403
1.849;-0.0973511
1.85;-0.0942993
1.851;-0.0912476
1.852;-0.0881958
1.853;-0.085144
1.854;-0.0820923
1.855;-0.0793457
1.856;-0.0765991
1.857;-0.0741577
1.858;-0.0720215
1.859;-0.0708008
1.86;-0.0695801
1.861;-0.0692749
1.862;-0.0692749
1.863;-0.0695801
1.864;-0.0701904
1.865;-0.0708008
1.866;-0.0717163
1.867;-0.0726318
1.868;-0.0738525
1.869;-0.0753784
1.87;-0.0772095
1.871;-0.0790405
1.872;-0.0811768
1.873;-0.0836182
1.874;-0.0860596
1.875;-0.088501
1.876;-0.0909424
1.877;-0.0933838
1.878;-0.0958252
1.879;-0.0985718
1.88;-0.101318
1.881;-0.10376
1.882;-0.106201
1.883;-0.108337
1.884;-0.110168
1.885;-0.111389
1.886;-0.112915
1.887;-0.114136
1.888;-0.115662
1.889;-0.116882
1.89;-0.118408
1.891;-0.119629
1.892;-0.12085
1.893;-0.121765
1.894;-0.122681
1.895;-0.123291
1.896;-0.123901
1.897;-0.124817
1.898;-0.125732
1.899;-0.126953
1.9;-0.128479
1.901;-0.1297
1.902;-0.131226
1.903;-0.132446
1.904;-0.133667
1.905;-0.134888
1.906;-0.136108
1.907;-0.137634
1.908;-0.139465
1.909;-0.141296
1.91;-0.143127
1.911;-0.144653
1.912;-0.146179
1.913;-0.147705
1.914;-0.149231
1.915;-0.150146
1.916;-0.151367
1.917;-0.151978
1.918;-0.152893
1.919;-0.153503
1.92;-0.154419
1.921;-0.155334
1.922;-0.156555
1.923;-0.157471
1.924;-0.158081
1.925;-0.158386
1.926;-0.158386
1.927;-0.158386
1.928;-0.158081
1.929;-0.158386
1.93;-0.158691
1.931;-0.158997
1.932;-0.159607
1.933;-0.159912
1.934;-0.159912
1.935;-0.159302
1.936;-0.158081
1.937;-0.15625
1.938;-0.154114
1.939;-0.151367
1.94;-0.148621
1.941;-0.145874
1.942;-0.143433
1.943;-0.140991
1.944;-0.138245
1.945;-0.134888
1.946;-0.131531
1.947;-0.127563
1.948;-0.123901
1.949;-0.120239
1.95;-0.116882
1.951;-0.113525
1.952;-0.110168
1.953;-0.107117
1.954;-0.10437
1.955;-0.101929
1.956;-0.0994873
1.957;-0.0973511
1.958;-0.0952148
1.959;-0.0927734
1.96;-0.0900269
1.961;-0.0872803
1.962;-0.0848389
1.963;-0.0823975
1.964;-0.0799561
1.965;-0.0772095
1.966;-0.0741577
1.967;-0.0708008
1.968;-0.0674438
1.969;-0.0637817
1.97;-0.0601196
1.971;-0.0570679
1.972;-0.0537109
1.973;-0.0509644
1.974;-0.0485229
1.975;-0.0466919
1.976;-0.045166
1.977;-0.0442505
1.978;-0.0436401
1.979;-0.0436401
1.98;-0.0439453
1.981;-0.0448608
1.982;-0.0463867
1.983;-0.0479126
1.984;-0.050354
1.985;-0.0527954
1.986;-0.0561523
1.987;-0.0598145
1.988;-0.0640869
1.989;-0.0686646
1.99;-0.0732422
1.991;-0.078125
1.992;-0.083313
1.993;-0.088501
1.994;-0.093689
1.995;-0.098877
1.996;-0.10376
1.997;-0.108032
1.998;-0.112
1.999;-0.115662
2;-0.119324
2.001;-0.122681
2.002;-0.126038
2.003;-0.1297
2.004;-0.133057
2.005;-0.136414
2.006;-0.139771
2.007;-0.143127
2.008;-0.146179
2.009;-0.149231
2.01;-0.152283
2.011;-0.154724
2.012;-0.157166
2.013;-0.159607
2.014;-0.161743
2.015;-0.164185
2.016;-0.166321
2.017;-0.168457
2.018;-0.170898
2.019;-0.17334
2.02;-0.175781
2.021;-0.177612
2.022;-0.178833
2.023;-0.179443
2.024;-0.180054
2.025;-0.180359
2.026;-0.180664
2.027;-0.180969
2.028;-0.181274
2.029;-0.181274
2.03;-0.18158
2.031;-0.18158
2.032;-0.181885
2.033;-0.18219
2.034;-0.182495
2.035;-0.183105
2.036;-0.184326
2.037;-0.185852
2.038;-0.187988
2.039;-0.191345
2.04;-0.195923
2.041;-0.202637
2.042;-0.211182
2.043;-0.221558
2.044;-0.23407
2.045;-0.248718
2.046;-0.264587
2.047;-0.281982
2.048;-0.300598
2.049;-0.319824
2.05;-0.338745
2.051;-0.357361
2.052;-0.375061
2.053;-0.39093
2.054;-0.404358
2.055;-0.414734
2.056;-0.421753
2.057;-0.424805
2.058;-0.422974
2.059;-0.415955
2.06;-0.402832
2.061;-0.38269
2.062;-0.355225
2.063;-0.319214
2.064;-0.274963
2.065;-0.220947
2.066;-0.157471
2.067;-0.0836182
2.068;0.000305176
2.069;0.0939941
2.07;0.197144
2.071;0.309143
2.072;0.428162
2.073;0.551453
2.074;0.67627
2.075;0.799255
2.076;0.918579
2.077;1.0318
2.078;1.1377
2.079;1.23413
2.08;1.32019
2.081;1.39435
2.082;1.45477
2.083;1.50024
2.084;1.52924
2.085;1.54022
2.086;1.53198
2.087;1.5033
2.088;1.45416
2.089;1.38489
2.09;1.29761
2.091;1.19354
2.092;1.07544
2.093;0.94635
2.094;0.808716
2.095;0.665894
2.096;0.520935
2.097;0.376587
2.098;0.235291
2.099;0.0994873
2.1;-0.0292969
2.101;-0.149536
2.102;-0.259705
2.103;-0.358887
2.104;-0.445862
2.105;-0.520325
2.106;-0.581665
2.107;-0.630493
2.108;-0.666809
2.109;-0.691833
2.11;-0.706482
2.111;-0.711365
2.112;-0.708008
2.113;-0.696716
2.114;-0.679626
2.115;-0.657043
2.116;-0.631104
2.117;-0.603027
2.118;-0.57373
2.119;-0.544434
2.12;-0.516052
2.121;-0.488892
2.122;-0.463562
2.123;-0.440063
2.124;-0.418701
2.125;-0.399475
2.126;-0.38208
2.127;-0.366516
2.128;-0.352478
2.129;-0.339966
2.13;-0.328979
2.131;-0.319824
2.132;-0.31189
2.133;-0.305786
2.134;-0.300903
2.135;-0.297241
2.136;-0.294495
2.137;-0.292358
2.138;-0.291138
2.139;-0.290527
2.14;-0.290222
2.141;-0.290222
2.142;-0.290527
2.143;-0.290222
2.144;-0.289917
2.145;-0.289001
2.146;-0.287476
2.147;-0.285339
2.148;-0.282898
2.149;-0.280151
2.15;-0.2771
2.151;-0.273743
2.152;-0.270386
2.153;-0.266418
2.154;-0.262451
2.155;-0.258179
2.156;-0.253906
2.157;-0.249634
2.158;-0.245361
2.159;-0.241089
2.16;-0.236816
2.161;-0.232544
2.162;-0.228577
2.163;-0.224304
2.164;-0.220642
2.165;-0.217285
2.166;-0.214539
2.167;-0.212097
2.168;-0.210266
2.169;-0.20813
2.17;-0.206299
2.171;-0.204468
2.172;-0.202332
2.173;-0.200195
2.174;-0.198364
2.175;-0.196228
2.176;-0.194397
2.177;-0.192261
2.178;-0.190125
2.179;-0.187988
2.18;-0.186157
2.181;-0.184326
2.182;-0.182495
2.183;-0.180359
2.184;-0.177917
2.185;-0.175781
2.186;-0.17334
2.187;-0.171204
2.188;-0.169373
2.189;-0.167847
2.19;-0.166321
2.191;-0.1651
2.192;-0.164185
2.193;-0.162964
2.194;-0.162048
2.195;-0.161438
2.196;-0.160828
2.197;-0.160522
2.198;-0.160522
2.199;-0.160522
2.2;-0.160828
2.201;-0.161743
2.202;-0.162659
2.203;-0.164185
2.204;-0.166016
2.205;-0.168457
2.206;-0.170898
2.207;-0.17334
2.208;-0.175781
2.209;-0.177612
2.21;-0.179138
2.211;-0.180664
2.212;-0.181885
2.213;-0.183105
2.214;-0.184021
2.215;-0.184937
2.216;-0.185547
2.217;-0.185547
2.218;-0.185547
2.219;-0.184937
2.22;-0.184021
2.221;-0.181885
2.222;-0.179443
2.223;-0.176086
2.224;-0.173035
2.225;-0.169678
2.226;-0.166626
2.227;-0.163879
2.228;-0.161133
2.229;-0.158081
2.23;-0.155334
2.231;-0.152893
2.232;-0.150452
2.233;-0.14801
2.234;-0.145874
2.235;-0.143433
2.236;-0.140381
2.237;-0.137329
2.238;-0.134277
2.239;-0.131226
2.24;-0.128174
2.241;-0.125122
2.242;-0.122375
2.243;-0.119629
2.244;-0.116577
2.245;-0.11322
2.246;-0.109558
2.247;-0.105286
2.248;-0.100708
2.249;-0.0958252
2.25;-0.090332
2.251;-0.0848389
2.252;-0.0790405
2.253;-0.0732422
2.254;-0.0680542
2.255;-0.0628662
2.256;-0.0579834
2.257;-0.0537109
2.258;-0.0497437
2.259;-0.0460815
2.26;-0.0427246
2.261;-0.0396729
2.262;-0.0369263
2.263;-0.0350952
2.264;-0.0338745
2.265;-0.0335693
2.266;-0.0338745
2.267;-0.0354004
2.268;-0.0372314
2.269;-0.0396729
2.27;-0.0421143
2.271;-0.0448608
2.272;-0.0476074
2.273;-0.0509644
2.274;-0.0543213
2.275;-0.0579834
2.276;-0.0616455
2.277;-0.0653076
2.278;-0.0689697
2.279;-0.0726318
2.28;-0.0759888
2.281;-0.0787354
2.282;-0.0808716
2.283;-0.0823975
2.284;-0.0836182
2.285;-0.0845337
2.286;-0.085144
2.287;-0.0857544
2.288;-0.0857544
2.289;-0.0857544
2.29;-0.0857544
2.291;-0.0854492
2.292;-0.085144
2.293;-0.085144
2.294;-0.085144
2.295;-0.0854492
2.296;-0.0860596
2.297;-0.0872803
2.298;-0.0888062
2.299;-0.0909424
2.3;-0.0930786
2.301;-0.0952148
2.302;-0.0976562
2.303;-0.100098
2.304;-0.102844
2.305;-0.105896
2.306;-0.109253
2.307;-0.11261
2.308;-0.115662
2.309;-0.119019
2.31;-0.12207
2.311;-0.124817
2.312;-0.127258
2.313;-0.129395
2.314;-0.131226
2.315;-0.132751
2.316;-0.133972
2.317;-0.135193
2.318;-0.136414
2.319;-0.137634
2.32;-0.138855
2.321;-0.140076
2.322;-0.140686
2.323;-0.141296
2.324;-0.141602
2.325;-0.141602
2.326;-0.141907
2.327;-0.142212
2.328;-0.142822
2.329;-0.143433
2.33;-0.144348
2.331;-0.145569
2.332;-0.147095
2.333;-0.148926
2.334;-0.151062
2.335;-0.153198
2.336;-0.155334
2.337;-0.157471
2.338;-0.159302
2.339;-0.161133
2.34;-0.162659
2.341;-0.164185
2.342;-0.165405
2.343;-0.166016
2.344;-0.166626
2.345;-0.166931
2.346;-0.166931
2.347;-0.166626
2.348;-0.166016
2.349;-0.164795
2.35;-0.163269
2.351;-0.161438
2.352;-0.159607
2.353;-0.157776
2.354;-0.155945
2.355;-0.154114
2.356;-0.152588
2.357;-0.150757
2.358;-0.149231
2.359;-0.1474
2.36;-0.145569
2.361;-0.143738
2.362;-0.141296
2.363;-0.138855
2.364;-0.135803
2.365;-0.132446
2.366;-0.128784
2.367;-0.125427
2.368;-0.12207
2.369;-0.118713
2.37;-0.115051
2.371;-0.111694
2.372;-0.108032
2.373;-0.104065
2.374;-0.100098
2.375;-0.0958252
2.376;-0.0915527
2.377;-0.0872803
2.378;-0.0827026
2.379;-0.0778198
2.38;-0.072937
2.381;-0.0674438
2.382;-0.0616455
2.383;-0.0558472
2.384;-0.0500488
2.385;-0.0442505
2.386;-0.0387573
2.387;-0.0332642
2.388;-0.0283813
2.389;-0.0234985
2.39;-0.0189209
2.391;-0.0146484
2.392;-0.0106812
2.393;-0.00640869
2.394;-0.00244141
2.395;0.0012207
2.396;0.00396729
2.397;0.00518799
2.398;0.00549316
2.399;0.00457764
2.4;0.00244141
2.401;-0.000305176
2.402;-0.00366211
2.403;-0.00793457
2.404;-0.0128174
2.405;-0.0180054
2.406;-0.0241089
2.407;-0.0305176
2.408;-0.0369263
2.409;-0.0436401
2.41;-0.0500488
2.411;-0.0564575
2.412;-0.062561
2.413;-0.0683594
2.414;-0.0738525
2.415;-0.0793457
2.416;-0.0842285
2.417;-0.0888062
2.418;-0.0933838
2.419;-0.0979614
2.42;-0.102234
2.421;-0.106506
2.422;-0.110779
2.423;-0.115662
2.424;-0.120544
2.425;-0.125732
2.426;-0.131226
2.427;-0.136719
2.428;-0.142517
2.429;-0.148315
2.43;-0.154419
2.431;-0.160217
2.432;-0.166321
2.433;-0.172119
2.434;-0.177612
2.435;-0.182495
2.436;-0.187073
2.437;-0.19104
2.438;-0.194092
2.439;-0.196533
2.44;-0.198364
2.441;-0.199585
2.442;-0.200195
2.443;-0.200195
2.444;-0.199585
2.445;-0.198669
2.446;-0.197449
2.447;-0.195923
2.448;-0.194702
2.449;-0.192871
2.45;-0.19104
2.451;-0.189209
2.452;-0.187073
2.453;-0.185547
2.454;-0.184631
2.455;-0.184326
2.456;-0.184937
2.457;-0.187073
2.458;-0.19043
2.459;-0.195618
2.46;-0.202942
2.461;-0.212097
2.462;-0.223694
2.463;-0.237732
2.464;-0.254211
2.465;-0.272827
2.466;-0.292664
2.467;-0.313416
2.468;-0.334167
2.469;-0.354004
2.47;-0.372314
2.471;-0.388794
2.472;-0.402222
2.473;-0.412598
2.474;-0.419312
2.475;-0.422058
2.476;-0.419617
2.477;-0.411682
2.478;-0.397339
2.479;-0.375366
2.48;-0.345459
2.481;-0.307007
2.482;-0.259094
2.483;-0.201416
2.484;-0.133057
2.485;-0.0546265
2.486;0.0344849
2.487;0.133057
2.488;0.241394
2.489;0.357666
2.49;0.480042
2.491;0.605164
2.492;0.730591
2.493;0.853577
2.494;0.97168
2.495;1.08337
2.496;1.18713
2.497;1.28174
2.498;1.36566
2.499;1.43707
2.5;1.49445
2.501;1.53625
2.502;1.56067
2.503;1.56677
2.504;1.55273
2.505;1.51825
2.506;1.46362
2.507;1.38916
2.508;1.29639
2.509;1.18805
2.51;1.06598
2.511;0.933228
2.512;0.792847
2.513;0.647583
2.514;0.500488
2.515;0.354309
2.516;0.211487
2.517;0.0744629
2.518;-0.0549316
2.519;-0.175171
2.52;-0.284424
2.521;-0.38208
2.522;-0.466919
2.523;-0.53833
2.524;-0.596619
2.525;-0.641479
2.526;-0.673218
2.527;-0.693359
2.528;-0.702209
2.529;-0.701599
2.53;-0.692444
2.531;-0.67688
2.532;-0.656128
2.533;-0.631104
2.534;-0.603943
2.535;-0.574951
2.536;-0.545959
2.537;-0.517273
2.538;-0.489502
2.539;-0.463257
2.54;-0.439148
2.541;-0.416565
2.542;-0.396423
2.543;-0.378418
2.544;-0.362549
2.545;-0.348816
2.546;-0.336914
2.547;-0.326538
2.548;-0.317383
2.549;-0.309143
2.55;-0.301819
2.551;-0.295105
2.552;-0.288391
2.553;-0.281982
2.554;-0.276184
2.555;-0.271301
2.556;-0.267334
2.557;-0.264893
2.558;-0.263367
2.559;-0.262451
2.56;-0.261841
2.561;-0.261536
2.562;-0.260925
2.563;-0.26062
2.564;-0.26062
2.565;-0.26062
2.566;-0.26123
2.567;-0.262146
2.568;-0.262756
2.569;-0.263367
2.57;-0.263672
2.571;-0.263672
2.572;-0.263062
2.573;-0.262146
2.574;-0.26062
2.575;-0.258789
2.576;-0.256348
2.577;-0.252991
2.578;-0.249634
2.579;-0.245972
2.58;-0.242004
2.581;-0.238037
2.582;-0.233765
2.583;-0.229492
2.584;-0.225525
2.585;-0.221558
2.586;-0.217896
2.587;-0.214844
2.588;-0.211792
2.589;-0.209045
2.59;-0.206299
2.591;-0.204163
2.592;-0.202637
2.593;-0.201416
2.594;-0.2005
2.595;-0.19989
2.596;-0.19928
2.597;-0.198975
2.598;-0.198364
2.599;-0.197449
2.6;-0.196533
2.601;-0.195618
2.602;-0.194702
2.603;-0.193787
2.604;-0.193176
2.605;-0.192566
2.606;-0.192261
2.607;-0.192261
2.608;-0.191956
2.609;-0.191345
2.61;-0.19104
2.611;-0.190735
2.612;-0.190125
2.613;-0.189209
2.614;-0.188599
2.615;-0.187683
2.616;-0.186768
2.617;-0.185852
2.618;-0.184937
2.619;-0.184021
2.62;-0.183105
2.621;-0.181885
2.622;-0.180969
2.623;-0.180054
2.624;-0.179138
2.625;-0.178223
2.626;-0.177612
2.627;-0.176697
2.628;-0.176392
2.629;-0.175781
2.63;-0.175476
2.631;-0.175171
2.632;-0.175476
2.633;-0.175781
2.634;-0.176392
2.635;-0.176697
2.636;-0.177002
2.637;-0.177002
2.638;-0.177002
2.639;-0.176697
2.64;-0.176086
2.641;-0.175171
2.642;-0.17395
2.643;-0.172424
2.644;-0.170898
2.645;-0.168762
2.646;-0.166626
2.647;-0.163879
2.648;-0.160828
2.649;-0.157166
2.65;-0.152893
2.651;-0.14801
2.652;-0.142822
2.653;-0.137634
2.654;-0.131836
2.655;-0.126038
2.656;-0.120239
2.657;-0.113831
2.658;-0.107422
2.659;-0.101013
2.66;-0.0942993
2.661;-0.0878906
2.662;-0.0817871
2.663;-0.0759888
2.664;-0.0704956
2.665;-0.0653076
2.666;-0.0604248
2.667;-0.055542
2.668;-0.050354
2.669;-0.045166
2.67;-0.0402832
2.671;-0.0357056
2.672;-0.0323486
2.673;-0.0299072
2.674;-0.0283813
2.675;-0.027771
2.676;-0.0271606
2.677;-0.0271606
2.678;-0.0271606
2.679;-0.027771
2.68;-0.0283813
2.681;-0.0292969
2.682;-0.0305176
2.683;-0.0314331
2.684;-0.0323486
2.685;-0.0332642
2.686;-0.0341797
2.687;-0.0354004
2.688;-0.0369263
2.689;-0.038147
2.69;-0.0396729
2.691;-0.0408936
2.692;-0.0424194
2.693;-0.0436401
2.694;-0.0445557
2.695;-0.0457764
2.696;-0.0466919
2.697;-0.0476074
2.698;-0.0482178
2.699;-0.0491333
2.7;-0.0497437
2.701;-0.0506592
2.702;-0.0515747
2.703;-0.0527954
2.704;-0.0543213
2.705;-0.0564575
2.706;-0.0585938
2.707;-0.0613403
2.708;-0.0640869
2.709;-0.0671387
2.71;-0.0698853
2.711;-0.0726318
2.712;-0.0759888
2.713;-0.0790405
2.714;-0.0820923
2.715;-0.085144
2.716;-0.0878906
2.717;-0.0906372
2.718;-0.093689
2.719;-0.0967407
2.72;-0.0997925
2.721;-0.102539
2.722;-0.105286
2.723;-0.107727
2.724;-0.110474
2.725;-0.11261
2.726;-0.114746
2.727;-0.116882
2.728;-0.119019
2.729;-0.121155
2.73;-0.123901
2.731;-0.126953
2.732;-0.13031
2.733;-0.133667
2.734;-0.137024
2.735;-0.140076
2.736;-0.143127
2.737;-0.145569
2.738;-0.14801
2.739;-0.150452
2.74;-0.152588
2.741;-0.155029
2.742;-0.15686
2.743;-0.158691
2.744;-0.160217
2.745;-0.161438
2.746;-0.162659
2.747;-0.163269
2.748;-0.163879
2.749;-0.163879
2.75;-0.163879
2.751;-0.163574
2.752;-0.163269
2.753;-0.162964
2.754;-0.162354
2.755;-0.162048
2.756;-0.161438
2.757;-0.161438
2.758;-0.161438
2.759;-0.161743
2.76;-0.162354
2.761;-0.162964
2.762;-0.163879
2.763;-0.16449
2.764;-0.165405
2.765;-0.166321
2.766;-0.167236
2.767;-0.168152
2.768;-0.168762
2.769;-0.169067
2.77;-0.169067
2.771;-0.169067
2.772;-0.169067
2.773;-0.169373
2.774;-0.169373
2.775;-0.169678
2.776;-0.169983
2.777;-0.169983
2.778;-0.169678
2.779;-0.169067
2.78;-0.168457
2.781;-0.167542
2.782;-0.166626
2.783;-0.1651
2.784;-0.163879
2.785;-0.162659
2.786;-0.161133
2.787;-0.159302
2.788;-0.157166
2.789;-0.154419
2.79;-0.151062
2.791;-0.1474
2.792;-0.143127
2.793;-0.138245
2.794;-0.133057
2.795;-0.127869
2.796;-0.122375
2.797;-0.116882
2.798;-0.111694
2.799;-0.106506
2.8;-0.101929
2.801;-0.0979614
2.802;-0.0942993
2.803;-0.0909424
2.804;-0.0878906
2.805;-0.0848389
2.806;-0.0817871
2.807;-0.0787354
2.808;-0.0759888
2.809;-0.072937
2.81;-0.0701904
2.811;-0.0671387
2.812;-0.0643921
2.813;-0.0619507
2.814;-0.0592041
2.815;-0.0564575
2.816;-0.0537109
2.817;-0.0509644
2.818;-0.0485229
2.819;-0.0463867
2.82;-0.0448608
2.821;-0.0439453
2.822;-0.0439453
2.823;-0.0445557
2.824;-0.0454712
2.825;-0.0466919
2.826;-0.0476074
2.827;-0.0491333
2.828;-0.0512695
2.829;-0.0540161
2.83;-0.0579834
2.831;-0.0628662
2.832;-0.0689697
2.833;-0.0756836
2.834;-0.0827026
2.835;-0.0897217
2.836;-0.0970459
2.837;-0.104065
2.838;-0.111389
2.839;-0.118408
2.84;-0.125122
2.841;-0.131531
2.842;-0.137634
2.843;-0.143433
2.844;-0.148621
2.845;-0.153809
2.846;-0.158691
2.847;-0.163879
2.848;-0.169067
2.849;-0.174255
2.85;-0.179443
2.851;-0.184021
2.852;-0.188599
2.853;-0.192566
2.854;-0.196533
2.855;-0.200806
2.856;-0.205078
2.857;-0.209351
2.858;-0.213623
2.859;-0.217896
2.86;-0.222168
2.861;-0.226135
2.862;-0.229797
2.863;-0.233459
2.864;-0.237122
2.865;-0.240784
2.866;-0.244141
2.867;-0.247192
2.868;-0.250549
2.869;-0.253296
2.87;-0.256042
2.871;-0.258179
2.872;-0.259705
2.873;-0.26123
2.874;-0.262451
2.875;-0.263367
2.876;-0.264282
2.877;-0.265198
2.878;-0.265503
2.879;-0.266113
2.88;-0.266418
2.881;-0.267639
2.882;-0.26947
2.883;-0.272217
2.884;-0.276184
2.885;-0.281982
2.886;-0.289307
2.887;-0.298767
2.888;-0.310669
2.889;-0.324097
2.89;-0.339661
2.891;-0.35614
2.892;-0.37323
2.893;-0.39093
2.894;-0.40863
2.895;-0.42572
2.896;-0.441284
2.897;-0.454407
2.898;-0.465088
2.899;-0.472107
2.9;-0.475159
2.901;-0.473633
2.902;-0.467529
2.903;-0.456238
2.904;-0.438843
2.905;-0.414734
2.906;-0.382996
2.907;-0.343323
2.908;-0.2948
2.909;-0.236816
2.91;-0.169067
2.911;-0.0915527
2.912;-0.00396729
2.913;0.0927734
2.914;0.198059
2.915;0.310364
2.916;0.427551
2.917;0.54718
2.918;0.666504
2.919;0.783081
2.92;0.89447
2.921;0.999451
2.922;1.0965
2.923;1.18469
2.924;1.2619
2.925;1.3266
2.926;1.37787
2.927;1.41357
2.928;1.4328
2.929;1.43372
2.93;1.41541
2.931;1.37726
2.932;1.31927
2.933;1.24268
2.934;1.14868
2.935;1.03912
2.936;0.916748
2.937;0.784302
2.938;0.644531
2.939;0.501099
2.94;0.35614
2.941;0.212402
2.942;0.0726318
2.943;-0.0619507
2.944;-0.188904
2.945;-0.307007
2.946;-0.415039
2.947;-0.511475
2.948;-0.595703
2.949;-0.667419
2.95;-0.726318
2.951;-0.772095
2.952;-0.805969
2.953;-0.828552
2.954;-0.840149
2.955;-0.842285
2.956;-0.836182
2.957;-0.822754
2.958;-0.803833
2.959;-0.78064
2.96;-0.754395
2.961;-0.726013
2.962;-0.697021
2.963;-0.667725
2.964;-0.639343
2.965;-0.611877
2.966;-0.586243
2.967;-0.562439
2.968;-0.540771
2.969;-0.520935
2.97;-0.503235
2.971;-0.487366
2.972;-0.473633
2.973;-0.462036
2.974;-0.452271
2.975;-0.444336
2.976;-0.437622
2.977;-0.431824
2.978;-0.427246
2.979;-0.423889
2.98;-0.421753
2.981;-0.420532
2.982;-0.420227
2.983;-0.420837
2.984;-0.421753
2.985;-0.422668
2.986;-0.423889
2.987;-0.42511
2.988;-0.426331
2.989;-0.427246
2.99;-0.428467
2.991;-0.429382
2.992;-0.430298
2.993;-0.430908
2.994;-0.430908
2.995;-0.430908
2.996;-0.430298
2.997;-0.429382
2.998;-0.428162
2.999;-0.426636
3;-0.424805
3.001;-0.422668
3.002;-0.420532
3.003;-0.418396
3.004;-0.415955
3.005;-0.413818
3.006;-0.411682
3.007;-0.410156
3.008;-0.408325
3.009;-0.407104
3.01;-0.405884
3.011;-0.404663
3.012;-0.403748
3.013;-0.402832
3.014;-0.401611
3.015;-0.400391
3.016;-0.398865
3.017;-0.397644
3.018;-0.396423
3.019;-0.395203
3.02;-0.394287
3.021;-0.393372
3.022;-0.392151
3.023;-0.39032
3.024;-0.388184
3.025;-0.385742
3.026;-0.382996
3.027;-0.380859
3.028;-0.378723
3.029;-0.377502
3.03;-0.376892
3.031;-0.376587
3.032;-0.376587
3.033;-0.376892
3.034;-0.376892
3.035;-0.377197
3.036;-0.377197
3.037;-0.377502
3.038;-0.377808
3.039;-0.378113
3.04;-0.379028
3.041;-0.379944
3.042;-0.380859
3.043;-0.382385
3.044;-0.383911
3.045;-0.385742
3.046;-0.386963
3.047;-0.388184
3.048;-0.389099
3.049;-0.389709
3.05;-0.389709
3.051;-0.390015
3.052;-0.390015
3.053;-0.39032
3.054;-0.39093
3.055;-0.391235
3.056;-0.391541
3.057;-0.391541
3.058;-0.391541
3.059;-0.391541
3.06;-0.391846
3.061;-0.392151
3.062;-0.392761
3.063;-0.393066
3.064;-0.393677
3.065;-0.393677
3.066;-0.393677
3.067;-0.393066
3.068;-0.392151
3.069;-0.391235
3.07;-0.389709
3.071;-0.388489
3.072;-0.386963
3.073;-0.385437
3.074;-0.383911
3.075;-0.38269
3.076;-0.38147
3.077;-0.379944
3.078;-0.378723
3.079;-0.377197
3.08;-0.375671
3.081;-0.37384
3.082;-0.372009
3.083;-0.369568
3.084;-0.366821
3.085;-0.364075
3.086;-0.360718
3.087;-0.357056
3.088;-0.353088
3.089;-0.349121
3.09;-0.345154
3.091;-0.341187
3.092;-0.337219
3.093;-0.333252
3.094;-0.328979
3.095;-0.324707
3.096;-0.320435
3.097;-0.316162
3.098;-0.31189
3.099;-0.308533
3.1;-0.305481
3.101;-0.303345
3.102;-0.301819
3.103;-0.301208
3.104;-0.301514
3.105;-0.302429
3.106;-0.303955
3.107;-0.306091
3.108;-0.308838
3.109;-0.311584
3.11;-0.314636
3.111;-0.318298
3.112;-0.32196
3.113;-0.325623
3.114;-0.329895
3.115;-0.333862
3.116;-0.33844
3.117;-0.343018
3.118;-0.3479
3.119;-0.353088
3.12;-0.357971
3.121;-0.363159
3.122;-0.368347
3.123;-0.37323
3.124;-0.378113
3.125;-0.382996
3.126;-0.387878
3.127;-0.392761
3.128;-0.397339
3.129;-0.401917
3.13;-0.406494
3.131;-0.411377
3.132;-0.41626
3.133;-0.421143
3.134;-0.426331
3.135;-0.431213
3.136;-0.436096
3.137;-0.440674
3.138;-0.445251
3.139;-0.449524
3.14;-0.453796
3.141;-0.458069
3.142;-0.461731
3.143;-0.465393
3.144;-0.46875
3.145;-0.471802
3.146;-0.474548
3.147;-0.476685
3.148;-0.478821
3.149;-0.480957
3.15;-0.483704
3.151;-0.48645
3.152;-0.489807
3.153;-0.492859
3.154;-0.496216
3.155;-0.499573
3.156;-0.50293
3.157;-0.505981
3.158;-0.509033
3.159;-0.512085
3.16;-0.515137
3.161;-0.518494
3.162;-0.52124
3.163;-0.523987
3.164;-0.526428
3.165;-0.52887
3.166;-0.531006
3.167;-0.533142
3.168;-0.535278
3.169;-0.53772
3.17;-0.539856
3.171;-0.541992
3.172;-0.544128
3.173;-0.546265
3.174;-0.548096
3.175;-0.549316
3.176;-0.550537
3.177;-0.551453
3.178;-0.552673
3.179;-0.553894
3.18;-0.55542
3.181;-0.556641
3.182;-0.557861
3.183;-0.558777
3.184;-0.559387
3.185;-0.560608
3.186;-0.562134
3.187;-0.56427
3.188;-0.566711
3.189;-0.569458
3.19;-0.57251
3.191;-0.575562
3.192;-0.578613
3.193;-0.58197
3.194;-0.585632
3.195;-0.589294
3.196;-0.592957
3.197;-0.596924
3.198;-0.600586
3.199;-0.604248
3.2;-0.607605
3.201;-0.610962
3.202;-0.614319
3.203;-0.617065
3.204;-0.619507
3.205;-0.621643
3.206;-0.622864
3.207;-0.623474
3.208;-0.623474
3.209;-0.622559
3.21;-0.621033
3.211;-0.618591
3.212;-0.61554
3.213;-0.611572
3.214;-0.607605
3.215;-0.603027
3.216;-0.59906
3.217;-0.595703
3.218;-0.592957
3.219;-0.59082
3.22;-0.5896
3.221;-0.588989
3.222;-0.588684
3.223;-0.588989
3.224;-0.5896
3.225;-0.59082
3.226;-0.592346
3.227;-0.593567
3.228;-0.594482
3.229;-0.595093
3.23;-0.595398
3.231;-0.595093
3.232;-0.594177
3.233;-0.592957
3.234;-0.591431
3.235;-0.589294
3.236;-0.586243
3.237;-0.582275
3.238;-0.577393
3.239;-0.572205
3.24;-0.567017
3.241;-0.561523
3.242;-0.556335
3.243;-0.551147
3.244;-0.546875
3.245;-0.543213
3.246;-0.541077
3.247;-0.540161
3.248;-0.541077
3.249;-0.543213
3.25;-0.546875
3.251;-0.551758
3.252;-0.557861
3.253;-0.56488
3.254;-0.57312
3.255;-0.581665
3.256;-0.59082
3.257;-0.59967
3.258;-0.608521
3.259;-0.617065
3.26;-0.625305
3.261;-0.632935
3.262;-0.639954
3.263;-0.646667
3.264;-0.653076
3.265;-0.658569
3.266;-0.663757
3.267;-0.66803
3.268;-0.671692
3.269;-0.675049
3.27;-0.678406
3.271;-0.681763
3.272;-0.68512
3.273;-0.688782
3.274;-0.692749
3.275;-0.696716
3.276;-0.700684
3.277;-0.704956
3.278;-0.709534
3.279;-0.714111
3.28;-0.718994
3.281;-0.724182
3.282;-0.729675
3.283;-0.735168
3.284;-0.740662
3.285;-0.74646
3.286;-0.752258
3.287;-0.758057
3.288;-0.763855
3.289;-0.769653
3.29;-0.775146
3.291;-0.78064
3.292;-0.785522
3.293;-0.7901
3.294;-0.794067
3.295;-0.797729
3.296;-0.800781
3.297;-0.803528
3.298;-0.805969
3.299;-0.808105
3.3;-0.810242
3.301;-0.812378
3.302;-0.814819
3.303;-0.817261
3.304;-0.820007
3.305;-0.823059
3.306;-0.826416
3.307;-0.830383
3.308;-0.834656
3.309;-0.840149
3.31;-0.847168
3.311;-0.856018
3.312;-0.867004
3.313;-0.879822
3.314;-0.894775
3.315;-0.91156
3.316;-0.929871
3.317;-0.949097
3.318;-0.969543
3.319;-0.989685
3.32;-1.00922
3.321;-1.02722
3.322;-1.04248
3.323;-1.05408
3.324;-1.06201
3.325;-1.06567
3.326;-1.06415
3.327;-1.05743
3.328;-1.04462
3.329;-1.02509
3.33;-0.997925
3.331;-0.962524
3.332;-0.918579
3.333;-0.865479
3.334;-0.803223
3.335;-0.731201
3.336;-0.65033
3.337;-0.559998
3.338;-0.461426
3.339;-0.355225
3.34;-0.243225
3.341;-0.127258
3.342;-0.0106812
3.343;0.10376
3.344;0.213318
3.345;0.315857
3.346;0.410156
3.347;0.494385
3.348;0.567627
3.349;0.628662
3.35;0.67627
3.351;0.709534
3.352;0.726929
3.353;0.727539
3.354;0.710754
3.355;0.675659
3.356;0.622559
3.357;0.552063
3.358;0.464783
3.359;0.362244
3.36;0.246582
3.361;0.120544
3.362;-0.0128174
3.363;-0.150757
3.364;-0.289917
3.365;-0.428162
3.366;-0.562439
3.367;-0.691528
3.368;-0.812988
3.369;-0.925903
3.37;-1.02875
3.371;-1.12091
3.372;-1.20178
3.373;-1.27075
3.374;-1.32812
3.375;-1.3736
3.376;-1.40778
3.377;-1.43127
3.378;-1.4447
3.379;-1.44897
3.38;-1.4447
3.381;-1.43372
3.382;-1.41693
3.383;-1.39557
3.384;-1.37054
3.385;-1.34369
3.386;-1.31592
3.387;-1.28815
3.388;-1.26129
3.389;-1.23566
3.39;-1.21155
3.391;-1.18896
3.392;-1.16821
3.393;-1.14929
3.394;-1.1322
3.395;-1.11694
3.396;-1.10321
3.397;-1.09131
3.398;-1.08032
3.399;-1.07086
3.4;-1.06293
3.401;-1.05591
3.402;-1.05011
3.403;-1.04584
3.404;-1.04218
3.405;-1.03973
3.406;-1.0376
3.407;-1.03577
3.408;-1.03424
3.409;-1.03302
3.41;-1.03149
3.411;-1.03027
3.412;-1.02875
3.413;-1.02722
3.414;-1.0257
3.415;-1.02417
3.416;-1.02264
3.417;-1.02112
3.418;-1.0199
3.419;-1.01868
3.42;-1.01715
3.421;-1.01562
3.422;-1.01379
3.423;-1.01196
3.424;-1.01044
3.425;-1.00891
3.426;-1.00769
3.427;-1.00647
3.428;-1.00555
3.429;-1.00464
3.43;-1.00403
3.431;-1.00372
3.432;-1.00403
3.433;-1.00464
3.434;-1.00525
3.435;-1.00647
3.436;-1.008
3.437;-1.00952
3.438;-1.01135
3.439;-1.01318
3.44;-1.0144
3.441;-1.01562
3.442;-1.01685
3.443;-1.01776
3.444;-1.01868
3.445;-1.01959
3.446;-1.0202
3.447;-1.02051
3.448;-1.0202
3.449;-1.01959
3.45;-1.01868
3.451;-1.01776
3.452;-1.01685
3.453;-1.01562
3.454;-1.01471
3.455;-1.01349
3.456;-1.01227
3.457;-1.01074
3.458;-1.00952
3.459;-1.0083
3.46;-1.00677
3.461;-1.00494
3.462;-1.00311
3.463;-1.00098
3.464;-0.99884
3.465;-0.997009
3.466;-0.995178
3.467;-0.993652
3.468;-0.992432
3.469;-0.990906
3.47;-0.98938
3.471;-0.987549
3.472;-0.985413
3.473;-0.983276
3.474;-0.98114
3.475;-0.978699
3.476;-0.976257
3.477;-0.973511
3.478;-0.970764
3.479;-0.968018
3.48;-0.965271
3.481;-0.962524
3.482;-0.960083
3.483;-0.957642
3.484;-0.9552
3.485;-0.952759
3.486;-0.950317
3.487;-0.948181
3.488;-0.94635
3.489;-0.944824
3.49;-0.943909
3.491;-0.942993
3.492;-0.942688
3.493;-0.942078
3.494;-0.940857
3.495;-0.939941
3.496;-0.938721
3.497;-0.93811
3.498;-0.937195
3.499;-0.93689
3.5;-0.935974
3.501;-0.934753
3.502;-0.932922
3.503;-0.930786
3.504;-0.927734
3.505;-0.924072
3.506;-0.920105
3.507;-0.915833
3.508;-0.911255
3.509;-0.906372
3.51;-0.901184
3.511;-0.895691
3.512;-0.889893
3.513;-0.884094
3.514;-0.877991
3.515;-0.872192
3.516;-0.867004
3.517;-0.862427
3.518;-0.858154
3.519;-0.854492
3.52;-0.851135
3.521;-0.848083
3.522;-0.845642
3.523;-0.843811
3.524;-0.842285
3.525;-0.841064
3.526;-0.840454
3.527;-0.840149
3.528;-0.840149
3.529;-0.839844
3.53;-0.839844
3.531;-0.839233
3.532;-0.838928
3.533;-0.838318
3.534;-0.838013
3.535;-0.837708
3.536;-0.837708
3.537;-0.838318
3.538;-0.839233
3.539;-0.840759
3.54;-0.842285
3.541;-0.843811
3.542;-0.845337
3.543;-0.847473
3.544;-0.849915
3.545;-0.853271
3.546;-0.857544
3.547;-0.862427
3.548;-0.86792
3.549;-0.873718
3.55;-0.879822
3.551;-0.88623
3.552;-0.892639
3.553;-0.898743
3.554;-0.904541
3.555;-0.909729
3.556;-0.914612
3.557;-0.918884
3.558;-0.922852
3.559;-0.926208
3.56;-0.92926
3.561;-0.931702
3.562;-0.933838
3.563;-0.935669
3.564;-0.93689
3.565;-0.937805
3.566;-0.938721
3.567;-0.939636
3.568;-0.940857
3.569;-0.942383
3.57;-0.944214
3.571;-0.946045
3.572;-0.948181
3.573;-0.950012
3.574;-0.952454
3.575;-0.95459
3.576;-0.957031
3.577;-0.959778
3.578;-0.962524
3.579;-0.965576
3.58;-0.968628
3.581;-0.971069
3.582;-0.973206
3.583;-0.974426
3.584;-0.975037
3.585;-0.974426
3.586;-0.973206
3.587;-0.971985
3.588;-0.970764
3.589;-0.970154
3.59;-0.969849
3.591;-0.969849
3.592;-0.969849
3.593;-0.969849
3.594;-0.969238
3.595;-0.968323
3.596;-0.967102
3.597;-0.965576
3.598;-0.96405
3.599;-0.962524
3.6;-0.961304
3.601;-0.960388
3.602;-0.960083
3.603;-0.959778
3.604;-0.959778
3.605;-0.960083
3.606;-0.960083
3.607;-0.960083
3.608;-0.959778
3.609;-0.959167
3.61;-0.957947
3.611;-0.957031
3.612;-0.956116
3.613;-0.9552
3.614;-0.95459
3.615;-0.953979
3.616;-0.953674
3.617;-0.953369
3.618;-0.953674
3.619;-0.953979
3.62;-0.954895
3.621;-0.955505
3.622;-0.956116
3.623;-0.956726
3.624;-0.956726
3.625;-0.956421
3.626;-0.955811
3.627;-0.954895
3.628;-0.953674
3.629;-0.951538
3.63;-0.948486
3.631;-0.944824
3.632;-0.940247
3.633;-0.934753
3.634;-0.92865
3.635;-0.921936
3.636;-0.914307
3.637;-0.906372
3.638;-0.898438
3.639;-0.890503
3.64;-0.882874
3.641;-0.875549
3.642;-0.868835
3.643;-0.862427
3.644;-0.856323
3.645;-0.85022
3.646;-0.844421
3.647;-0.838623
3.648;-0.833435
3.649;-0.828552
3.65;-0.823669
3.651;-0.819397
3.652;-0.814819
3.653;-0.810547
3.654;-0.806274
3.655;-0.802002
3.656;-0.797424
3.657;-0.792847
3.658;-0.787964
3.659;-0.783386
3.66;-0.778809
3.661;-0.774841
3.662;-0.770874
3.663;-0.767212
3.664;-0.76416
3.665;-0.761108
3.666;-0.758667
3.667;-0.756836
3.668;-0.755615
3.669;-0.755005
3.67;-0.755005
3.671;-0.75531
3.672;-0.75592
3.673;-0.757446
3.674;-0.759583
3.675;-0.762329
3.676;-0.765686
3.677;-0.769958
3.678;-0.774536
3.679;-0.779724
3.68;-0.784607
3.681;-0.788879
3.682;-0.792847
3.683;-0.796509
3.684;-0.799561
3.685;-0.802612
3.686;-0.805359
3.687;-0.808716
3.688;-0.811768
3.689;-0.814819
3.69;-0.817566
3.691;-0.820618
3.692;-0.823669
3.693;-0.827026
3.694;-0.830688
3.695;-0.834656
3.696;-0.838928
3.697;-0.843506
3.698;-0.848389
3.699;-0.852966
3.7;-0.857544
3.701;-0.862122
3.702;-0.866699
3.703;-0.871277
3.704;-0.875549
3.705;-0.879517
3.706;-0.883179
3.707;-0.88623
3.708;-0.888977
3.709;-0.891113
3.71;-0.892334
3.711;-0.892944
3.712;-0.89325
3.713;-0.892944
3.714;-0.892639
3.715;-0.892029
3.716;-0.890808
3.717;-0.888977
3.718;-0.886841
3.719;-0.884094
3.72;-0.881042
3.721;-0.877686
3.722;-0.874329
3.723;-0.870972
3.724;-0.86792
3.725;-0.865479
3.726;-0.863647
3.727;-0.862427
3.728;-0.862427
3.729;-0.863037
3.73;-0.864868
3.731;-0.86731
3.732;-0.871277
3.733;-0.87677
3.734;-0.884094
3.735;-0.89325
3.736;-0.904541
3.737;-0.917053
3.738;-0.930481
3.739;-0.944214
3.74;-0.957642
3.741;-0.970154
3.742;-0.98053
3.743;-0.989075
3.744;-0.994568
3.745;-0.997009
3.746;-0.996399
3.747;-0.992126
3.748;-0.983582
3.749;-0.970459
3.75;-0.951843
3.751;-0.927124
3.752;-0.895386
3.753;-0.856323
3.754;-0.809326
3.755;-0.753784
3.756;-0.689392
3.757;-0.61615
3.758;-0.534363
3.759;-0.444946
3.76;-0.348206
3.761;-0.245361
3.762;-0.137939
3.763;-0.0283813
3.764;0.0805664
3.765;0.186462
3.766;0.28656
3.767;0.379028
3.768;0.463257
3.769;0.537109
3.77;0.600281
3.771;0.65155
3.772;0.690002
3.773;0.714722
3.774;0.725098
3.775;0.71991
3.776;0.698242
3.777;0.659485
3.778;0.604248
3.779;0.532837
3.78;0.446472
3.781;0.34729
3.782;0.237122
3.783;0.119019
3.784;-0.00457764
3.785;-0.13092
3.786;-0.257568
3.787;-0.38208
3.788;-0.501709
3.789;-0.615234
3.79;-0.72113
3.791;-0.818481
3.792;-0.906372
3.793;-0.983887
3.794;-1.05103
3.795;-1.10718
3.796;-1.15265
3.797;-1.18774
3.798;-1.21307
3.799;-1.22955
3.8;-1.23749
3.801;-1.2381
3.802;-1.23199
3.803;-1.22009
3.804;-1.20361
3.805;-1.18317
3.806;-1.15967
3.807;-1.13434
3.808;-1.10748
3.809;-1.08032
3.81;-1.05316
3.811;-1.02692
3.812;-1.00128
3.813;-0.976868
3.814;-0.953979
3.815;-0.932617
3.816;-0.912781
3.817;-0.894775
3.818;-0.878296
3.819;-0.863037
3.82;-0.848694
3.821;-0.835266
3.822;-0.822449
3.823;-0.810547
3.824;-0.799561
3.825;-0.789795
3.826;-0.78125
3.827;-0.773621
3.828;-0.766907
3.829;-0.760803
3.83;-0.75531
3.831;-0.750122
3.832;-0.746155
3.833;-0.742493
3.834;-0.739441
3.835;-0.737
3.836;-0.734558
3.837;-0.732117
3.838;-0.72937
3.839;-0.726929
3.84;-0.724182
3.841;-0.721741
3.842;-0.718994
3.843;-0.716858
3.844;-0.714417
3.845;-0.712585
3.846;-0.710449
3.847;-0.708923
3.848;-0.707397
3.849;-0.705872
3.85;-0.703735
3.851;-0.701599
3.852;-0.699463
3.853;-0.697021
3.854;-0.694885
3.855;-0.693054
3.856;-0.690613
3.857;-0.688171
3.858;-0.684814
3.859;-0.681152
3.86;-0.676575
3.861;-0.671692
3.862;-0.666504
3.863;-0.661011
3.864;-0.655518
3.865;-0.65033
3.866;-0.645447
3.867;-0.640869
3.868;-0.636292
3.869;-0.631714
3.87;-0.626831
3.871;-0.622253
3.872;-0.617676
3.873;-0.613403
3.874;-0.609741
3.875;-0.606384
3.876;-0.603333
3.877;-0.600891
3.878;-0.598755
3.879;-0.597229
3.88;-0.595703
3.881;-0.594788
3.882;-0.594177
3.883;-0.593262
3.884;-0.592651
3.885;-0.591431
3.886;-0.589905
3.887;-0.588379
3.888;-0.586243
3.889;-0.584106
3.89;-0.581665
3.891;-0.579224
3.892;-0.576782
3.893;-0.574646
3.894;-0.572205
3.895;-0.569763
3.896;-0.566711
3.897;-0.56366
3.898;-0.560303
3.899;-0.556946
3.9;-0.553894
3.901;-0.550842
3.902;-0.548096
3.903;-0.545349
3.904;-0.542603
3.905;-0.539856
3.906;-0.537109
3.907;-0.534058
3.908;-0.530701
3.909;-0.527039
3.91;-0.523071
3.911;-0.518799
3.912;-0.514526
3.913;-0.510254
3.914;-0.505676
3.915;-0.501404
3.916;-0.496826
3.917;-0.491943
3.918;-0.487061
3.919;-0.481873
3.92;-0.476379
3.921;-0.471191
3.922;-0.465393
3.923;-0.459595
3.924;-0.453796
3.925;-0.448303
3.926;-0.443115
3.927;-0.438232
3.928;-0.43396
3.929;-0.429688
3.93;-0.425415
3.931;-0.421448
3.932;-0.417175
3.933;-0.412598
3.934;-0.407715
3.935;-0.402832
3.936;-0.397644
3.937;-0.392151
3.938;-0.386963
3.939;-0.381775
3.94;-0.376587
3.941;-0.371094
3.942;-0.365601
3.943;-0.359192
3.944;-0.352783
3.945;-0.346375
3.946;-0.339966
3.947;-0.333557
3.948;-0.327759
3.949;-0.32196
3.95;-0.316467
3.951;-0.310974
3.952;-0.306091
3.953;-0.301208
3.954;-0.296936
3.955;-0.292969
3.956;-0.289917
3.957;-0.28717
3.958;-0.285339
3.959;-0.284119
3.96;-0.283813
3.961;-0.283813
3.962;-0.284424
3.963;-0.285034
3.964;-0.285339
3.965;-0.28595
3.966;-0.28656
3.967;-0.287476
3.968;-0.289001
3.969;-0.290833
3.97;-0.292969
3.971;-0.29541
3.972;-0.297546
3.973;-0.299988
3.974;-0.302429
3.975;-0.304565
3.976;-0.306396
3.977;-0.307617
3.978;-0.309143
3.979;-0.310364
3.98;-0.311584
3.981;-0.3125
3.982;-0.313721
3.983;-0.314941
3.984;-0.316467
3.985;-0.317993
3.986;-0.319824
3.987;-0.321655
3.988;-0.323486
3.989;-0.325317
3.99;-0.326843
3.991;-0.328369
3.992;-0.32959
3.993;-0.330505
3.994;-0.331421
3.995;-0.332031
3.996;-0.332642
3.997;-0.333557
3.998;-0.334473
3.999;-0.335083
4;-0.335999
4.001;-0.336304
4.002;-0.336304
4.003;-0.336304
4.004;-0.335693
4.005;-0.335083
4.006;-0.334473
4.007;-0.333557
4.008;-0.332031
4.009;-0.3302
4.01;-0.327759
4.011;-0.325317
4.012;-0.322571
4.013;-0.32074
4.014;-0.319214
4.015;-0.318604
4.016;-0.317993
4.017;-0.317688
4.018;-0.317078
4.019;-0.316467
4.02;-0.315857
4.021;-0.315247
4.022;-0.314636
4.023;-0.313721
4.024;-0.312805
4.025;-0.31189
4.026;-0.310974
4.027;-0.310059
4.028;-0.308838
4.029;-0.307617
4.03;-0.305786
4.031;-0.30365
4.032;-0.300903
4.033;-0.297852
4.034;-0.294495
4.035;-0.290833
4.036;-0.286865
4.037;-0.282288
4.038;-0.27771
4.039;-0.272827
4.04;-0.267944
4.041;-0.263367
4.042;-0.259399
4.043;-0.255737
4.044;-0.252075
4.045;-0.248718
4.046;-0.245056
4.047;-0.240784
4.048;-0.236206
4.049;-0.231628
4.05;-0.227051
4.051;-0.223083
4.052;-0.219116
4.053;-0.215759
4.054;-0.212402
4.055;-0.209045
4.056;-0.205383
4.057;-0.201416
4.058;-0.196533
4.059;-0.191345
4.06;-0.185852
4.061;-0.180359
4.062;-0.174866
4.063;-0.169067
4.064;-0.163269
4.065;-0.157166
4.066;-0.151367
4.067;-0.145264
4.068;-0.139465
4.069;-0.133667
4.07;-0.127869
4.071;-0.12207
4.072;-0.115967
4.073;-0.109863
4.074;-0.104065
4.075;-0.0982666
4.076;-0.0930786
4.077;-0.0878906
4.078;-0.0830078
4.079;-0.0784302
4.08;-0.0744629
4.081;-0.071106
4.082;-0.0680542
4.083;-0.0656128
4.084;-0.0637817
4.085;-0.0622559
4.086;-0.0613403
4.087;-0.06073
4.088;-0.0604248
4.089;-0.0604248
4.09;-0.0601196
4.091;-0.0598145
4.092;-0.0592041
4.093;-0.0588989
4.094;-0.0592041
4.095;-0.0598145
4.096;-0.0604248
4.097;-0.0613403
4.098;-0.0622559
4.099;-0.0628662
4.1;-0.0631714
4.101;-0.0631714
4.102;-0.0634766
4.103;-0.0640869
4.104;-0.0653076
4.105;-0.0671387
4.106;-0.0695801
4.107;-0.0723267
4.108;-0.0753784
4.109;-0.0784302
4.11;-0.0820923
4.111;-0.0860596
4.112;-0.0900269
4.113;-0.0946045
4.114;-0.0991821
4.115;-0.104065
4.116;-0.108948
4.117;-0.114136
4.118;-0.118713
4.119;-0.122986
4.12;-0.126343
4.121;-0.129395
4.122;-0.131531
4.123;-0.132751
4.124;-0.133057
4.125;-0.132751
4.126;-0.131531
4.127;-0.130005
4.128;-0.127869
4.129;-0.125732
4.13;-0.123291
4.131;-0.120239
4.132;-0.116882
4.133;-0.113525
4.134;-0.109863
4.135;-0.106506
4.136;-0.103455
4.137;-0.101013
4.138;-0.0991821
4.139;-0.0982666
4.14;-0.0979614
4.141;-0.0979614
4.142;-0.0982666
4.143;-0.0991821
4.144;-0.100403
4.145;-0.102234
4.146;-0.10498
4.147;-0.108032
4.148;-0.112305
4.149;-0.117188
4.15;-0.122986
4.151;-0.1297
4.152;-0.138245
4.153;-0.147705
4.154;-0.158691
4.155;-0.170288
4.156;-0.18219
4.157;-0.193787
4.158;-0.204163
4.159;-0.213318
4.16;-0.220337
4.161;-0.224915
4.162;-0.227051
4.163;-0.226135
4.164;-0.222168
4.165;-0.214539
4.166;-0.203552
4.167;-0.187988
4.168;-0.167542
4.169;-0.141296
4.17;-0.108948
4.171;-0.0695801
4.172;-0.022583
4.173;0.0320435
4.174;0.0949097
4.175;0.166016
4.176;0.245056
4.177;0.332336
4.178;0.426941
4.179;0.527649
4.18;0.632324
4.181;0.738525
4.182;0.843506
4.183;0.944824
4.184;1.04004
4.185;1.12823
4.186;1.20789
4.187;1.27808
4.188;1.33789
4.189;1.38611
4.19;1.42212
4.191;1.44501
4.192;1.45386
4.193;1.44745
4.194;1.42578
4.195;1.38763
4.196;1.33392
4.197;1.26465
4.198;1.18103
4.199;1.08459
4.2;0.977783
4.201;0.863037
4.202;0.743408
4.203;0.621338
4.204;0.499573
4.205;0.379944
4.206;0.264893
4.207;0.15625
4.208;0.055542
4.209;-0.0369263
4.21;-0.119629
4.211;-0.192566
4.212;-0.255737
4.213;-0.309143
4.214;-0.352478
4.215;-0.386353
4.216;-0.410767
4.217;-0.426636
4.218;-0.434265
4.219;-0.434875
4.22;-0.428467
4.221;-0.41687
4.222;-0.400391
4.223;-0.379944
4.224;-0.35675
4.225;-0.331726
4.226;-0.305786
4.227;-0.279541
4.228;-0.253296
4.229;-0.228271
4.23;-0.204163
4.231;-0.18158
4.232;-0.160522
4.233;-0.140686
4.234;-0.12207
4.235;-0.10498
4.236;-0.0888062
4.237;-0.0735474
4.238;-0.0592041
4.239;-0.0457764
4.24;-0.0335693
4.241;-0.0222778
4.242;-0.0125122
4.243;-0.00366211
4.244;0.00396729
4.245;0.010376
4.246;0.0158691
4.247;0.0201416
4.248;0.0234985
4.249;0.0259399
4.25;0.0274658
4.251;0.0286865
4.252;0.0289917
4.253;0.0289917
4.254;0.0289917
4.255;0.0286865
4.256;0.0286865
4.257;0.0289917
4.258;0.0296021
4.259;0.0305176
4.26;0.0323486
4.261;0.0344849
4.262;0.0375366
4.263;0.0408936
4.264;0.0445557
4.265;0.0488281
4.266;0.0531006
4.267;0.0579834
4.268;0.0628662
4.269;0.067749
4.27;0.072937
4.271;0.0784302
4.272;0.0839233
4.273;0.0891113
4.274;0.0939941
4.275;0.098877
4.276;0.103149
4.277;0.107117
4.278;0.110474
4.279;0.11322
4.28;0.115356
4.281;0.117188
4.282;0.118408
4.283;0.120239
4.284;0.12207
4.285;0.124817
4.286;0.127869
4.287;0.131226
4.288;0.134583
4.289;0.137939
4.29;0.141602
4.291;0.145264
4.292;0.149231
4.293;0.153198
4.294;0.157166
4.295;0.161133
4.296;0.164795
4.297;0.168457
4.298;0.171814
4.299;0.175171
4.3;0.178528
4.301;0.18158
4.302;0.184937
4.303;0.188293
4.304;0.191956
4.305;0.195923
4.306;0.200195
4.307;0.204163
4.308;0.208435
4.309;0.212402
4.31;0.21637
4.311;0.220642
4.312;0.224609
4.313;0.228577
4.314;0.232544
4.315;0.237122
4.316;0.242004
4.317;0.246887
4.318;0.252075
4.319;0.257263
4.32;0.262451
4.321;0.267639
4.322;0.272522
4.323;0.277405
4.324;0.281982
4.325;0.28595
4.326;0.289917
4.327;0.293579
4.328;0.297546
4.329;0.301514
4.33;0.305786
4.331;0.310364
4.332;0.314331
4.333;0.318604
4.334;0.322266
4.335;0.325928
4.336;0.32959
4.337;0.333557
4.338;0.338135
4.339;0.342712
4.34;0.346985
4.341;0.351257
4.342;0.35553
4.343;0.359497
4.344;0.363464
4.345;0.368042
4.346;0.372925
4.347;0.377808
4.348;0.383301
4.349;0.388794
4.35;0.394897
4.351;0.401001
4.352;0.40741
4.353;0.414429
4.354;0.421448
4.355;0.429077
4.356;0.436401
4.357;0.444336
4.358;0.451965
4.359;0.45929
4.36;0.466919
4.361;0.474243
4.362;0.481873
4.363;0.489197
4.364;0.496216
4.365;0.50293
4.366;0.508728
4.367;0.513916
4.368;0.517883
4.369;0.52063
4.37;0.522766
4.371;0.523987
4.372;0.524597
4.373;0.524597
4.374;0.523682
4.375;0.521851
4.376;0.519409
4.377;0.516663
4.378;0.513916
4.379;0.511475
4.38;0.508728
4.381;0.506287
4.382;0.503845
4.383;0.501709
4.384;0.499573
4.385;0.497437
4.386;0.495911
4.387;0.494995
4.388;0.494385
4.389;0.49408
4.39;0.494385
4.391;0.49469
4.392;0.4953
4.393;0.495911
4.394;0.496826
4.395;0.498352
4.396;0.499878
4.397;0.501404
4.398;0.50293
4.399;0.50415
4.4;0.505066
4.401;0.505371
4.402;0.505066
4.403;0.504456
4.404;0.50354
4.405;0.502014
4.406;0.500183
4.407;0.498352
4.408;0.496216
4.409;0.493774
4.41;0.491333
4.411;0.488892
4.412;0.487061
4.413;0.485535
4.414;0.484314
4.415;0.484009
4.416;0.484619
4.417;0.485535
4.418;0.487061
4.419;0.488586
4.42;0.490723
4.421;0.492554
4.422;0.494385
4.423;0.496521
4.424;0.498352
4.425;0.500488
4.426;0.50293
4.427;0.505371
4.428;0.507507
4.429;0.509338
4.43;0.510559
4.431;0.511475
4.432;0.511475
4.433;0.511169
4.434;0.510559
4.435;0.509644
4.436;0.508728
4.437;0.507812
4.438;0.506592
4.439;0.505676
4.44;0.504761
4.441;0.50415
4.442;0.503845
4.443;0.50415
4.444;0.505066
4.445;0.505981
4.446;0.507202
4.447;0.508728
4.448;0.509949
4.449;0.511475
4.45;0.512695
4.451;0.514221
4.452;0.515747
4.453;0.517578
4.454;0.52002
4.455;0.522461
4.456;0.524902
4.457;0.527649
4.458;0.530396
4.459;0.532837
4.46;0.535583
4.461;0.538025
4.462;0.540771
4.463;0.543213
4.464;0.545654
4.465;0.548401
4.466;0.551147
4.467;0.554199
4.468;0.557556
4.469;0.561523
4.47;0.566406
4.471;0.571594
4.472;0.577087
4.473;0.582581
4.474;0.588074
4.475;0.592957
4.476;0.597534
4.477;0.602112
4.478;0.606079
4.479;0.609436
4.48;0.612183
4.481;0.614929
4.482;0.617676
4.483;0.621338
4.484;0.62561
4.485;0.630798
4.486;0.636597
4.487;0.6427
4.488;0.648499
4.489;0.653992
4.49;0.658569
4.491;0.662537
4.492;0.665588
4.493;0.668335
4.494;0.671082
4.495;0.673828
4.496;0.67627
4.497;0.678101
4.498;0.679626
4.499;0.680542
4.5;0.680542
4.501;0.679932
4.502;0.678406
4.503;0.675964
4.504;0.672913
4.505;0.669556
4.506;0.665283
4.507;0.6604
4.508;0.655212
4.509;0.650024
4.51;0.644836
4.511;0.639954
4.512;0.635376
4.513;0.631104
4.514;0.627441
4.515;0.624084
4.516;0.621033
4.517;0.618286
4.518;0.61554
4.519;0.612183
4.52;0.608826
4.521;0.605164
4.522;0.601501
4.523;0.597229
4.524;0.592346
4.525;0.587463
4.526;0.58197
4.527;0.576172
4.528;0.570068
4.529;0.563965
4.53;0.557861
4.531;0.551758
4.532;0.545959
4.533;0.540771
4.534;0.535583
4.535;0.531311
4.536;0.527344
4.537;0.523987
4.538;0.52124
4.539;0.518799
4.54;0.517578
4.541;0.516968
4.542;0.516968
4.543;0.517883
4.544;0.519409
4.545;0.52124
4.546;0.523071
4.547;0.524902
4.548;0.526428
4.549;0.527649
4.55;0.52887
4.551;0.52948
4.552;0.53009
4.553;0.530396
4.554;0.530701
4.555;0.531006
4.556;0.531006
4.557;0.530396
4.558;0.52948
4.559;0.527954
4.56;0.525818
4.561;0.523071
4.562;0.519409
4.563;0.515137
4.564;0.509949
4.565;0.50354
4.566;0.495605
4.567;0.48584
4.568;0.474548
4.569;0.461731
4.57;0.447388
4.571;0.432434
4.572;0.41748
4.573;0.403137
4.574;0.39032
4.575;0.379639
4.576;0.371399
4.577;0.366211
4.578;0.36438
4.579;0.366211
4.58;0.371399
4.581;0.380859
4.582;0.394897
4.583;0.414429
4.584;0.440369
4.585;0.473022
4.586;0.513
4.587;0.560913
4.588;0.617676
4.589;0.682678
4.59;0.756226
4.591;0.837708
4.592;0.926514
4.593;1.02234
4.594;1.12396
4.595;1.22925
4.596;1.33575
4.597;1.44073
4.598;1.54083
4.599;1.63452
4.6;1.72058
4.601;1.79779
4.602;1.86584
4.603;1.92383
4.604;1.97083
4.605;2.00562
4.606;2.02728
4.607;2.0343
4.608;2.02545
4.609;2.00073
4.61;1.95923
4.611;1.90125
4.612;1.828
4.613;1.74072
4.614;1.64093
4.615;1.53076
4.616;1.41327
4.617;1.2912
4.618;1.16699
4.619;1.0437
4.62;0.922852
4.621;0.806885
4.622;0.697327
4.623;0.594788
4.624;0.500793
4.625;0.415955
4.626;0.340881
4.627;0.276489
4.628;0.222473
4.629;0.179138
4.63;0.145874
4.631;0.122375
4.632;0.107727
4.633;0.101013
4.634;0.101318
4.635;0.107422
4.636;0.118408
4.637;0.133972
4.638;0.152588
4.639;0.17334
4.64;0.195923
4.641;0.219116
4.642;0.242615
4.643;0.265503
4.644;0.288086
4.645;0.309448
4.646;0.329285
4.647;0.347595
4.648;0.36438
4.649;0.379639
4.65;0.393372
4.651;0.406494
4.652;0.419006
4.653;0.430908
4.654;0.441895
4.655;0.452576
4.656;0.462341
4.657;0.471497
4.658;0.479736
4.659;0.487061
4.66;0.493469
4.661;0.499268
4.662;0.504456
4.663;0.509033
4.664;0.513306
4.665;0.516968
4.666;0.520325
4.667;0.523682
4.668;0.526733
4.669;0.53009
4.67;0.533447
4.671;0.536804
4.672;0.539856
4.673;0.543213
4.674;0.546265
4.675;0.549927
4.676;0.553589
4.677;0.557556
4.678;0.561829
4.679;0.566101
4.68;0.570374
4.681;0.574646
4.682;0.578613
4.683;0.581665
4.684;0.584412
4.685;0.586243
4.686;0.587463
4.687;0.588379
4.688;0.5896
4.689;0.59082
4.69;0.592346
4.691;0.593872
4.692;0.595703
4.693;0.597229
4.694;0.598755
4.695;0.600281
4.696;0.601501
4.697;0.602722
4.698;0.604553
4.699;0.606384
4.7;0.608826
4.701;0.611877
4.702;0.615234
4.703;0.619202
4.704;0.623474
4.705;0.627747
4.706;0.632324
4.707;0.636292
4.708;0.640259
4.709;0.643921
4.71;0.646973
4.711;0.649414
4.712;0.65155
4.713;0.653076
4.714;0.654297
4.715;0.654602
4.716;0.654907
4.717;0.655212
4.718;0.655212
4.719;0.655212
4.72;0.655518
4.721;0.656128
4.722;0.657043
4.723;0.657959
4.724;0.658264
4.725;0.658569
4.726;0.658569
4.727;0.658264
4.728;0.658264
4.729;0.658264
4.73;0.658875
4.731;0.65979
4.732;0.661011
4.733;0.662231
4.734;0.663452
4.735;0.664673
4.736;0.665588
4.737;0.666809
4.738;0.66803
4.739;0.669556
4.74;0.671082
4.741;0.672607
4.742;0.674133
4.743;0.675659
4.744;0.67688
4.745;0.678101
4.746;0.679932
4.747;0.682068
4.748;0.684814
4.749;0.688171
4.75;0.691833
4.751;0.696106
4.752;0.700378
4.753;0.704956
4.754;0.709534
4.755;0.714417
4.756;0.719299
4.757;0.723877
4.758;0.728149
4.759;0.732117
4.76;0.735474
4.761;0.738525
4.762;0.741882
4.763;0.744934
4.764;0.748596
4.765;0.752258
4.766;0.756226
4.767;0.759583
4.768;0.762634
4.769;0.765381
4.77;0.767517
4.771;0.769653
4.772;0.77179
4.773;0.773926
4.774;0.776062
4.775;0.778198
4.776;0.780334
4.777;0.782776
4.778;0.784912
4.779;0.787048
4.78;0.78949
4.781;0.791931
4.782;0.794678
4.783;0.797729
4.784;0.800476
4.785;0.802917
4.786;0.805054
4.787;0.80658
4.788;0.808105
4.789;0.809326
4.79;0.810547
4.791;0.811157
4.792;0.811157
4.793;0.810852
4.794;0.809631
4.795;0.8078
4.796;0.805664
4.797;0.803223
4.798;0.800476
4.799;0.797729
4.8;0.794373
4.801;0.791016
4.802;0.786743
4.803;0.782776
4.804;0.778503
4.805;0.774536
4.806;0.770874
4.807;0.767212
4.808;0.76416
4.809;0.761719
4.81;0.759583
4.811;0.758057
4.812;0.756531
4.813;0.755615
4.814;0.754395
4.815;0.753479
4.816;0.752563
4.817;0.751953
4.818;0.751343
4.819;0.750732
4.82;0.750122
4.821;0.749512
4.822;0.748901
4.823;0.747986
4.824;0.747375
4.825;0.746155
4.826;0.744934
4.827;0.743408
4.828;0.741882
4.829;0.739746
4.83;0.73761
4.831;0.735168
4.832;0.732727
4.833;0.72998
4.834;0.727844
4.835;0.725708
4.836;0.723572
4.837;0.721741
4.838;0.71991
4.839;0.718079
4.84;0.716858
4.841;0.715637
4.842;0.715027
4.843;0.714722
4.844;0.714417
4.845;0.714111
4.846;0.714111
4.847;0.714111
4.848;0.714111
4.849;0.713806
4.85;0.713501
4.851;0.712891
4.852;0.711975
4.853;0.71106
4.854;0.710144
4.855;0.709229
4.856;0.708618
4.857;0.708313
4.858;0.708313
4.859;0.708313
4.86;0.708008
4.861;0.707703
4.862;0.707092
4.863;0.706177
4.864;0.705261
4.865;0.704346
4.866;0.703735
4.867;0.70343
4.868;0.70343
4.869;0.703735
4.87;0.704041
4.871;0.704346
4.872;0.704956
4.873;0.705261
4.874;0.705566
4.875;0.705872
4.876;0.706787
4.877;0.708008
4.878;0.709839
4.879;0.71228
4.88;0.715027
4.881;0.718079
4.882;0.721436
4.883;0.725098
4.884;0.729065
4.885;0.733337
4.886;0.73822
4.887;0.743408
4.888;0.748901
4.889;0.7547
4.89;0.760193
4.891;0.765381
4.892;0.770569
4.893;0.775146
4.894;0.779724
4.895;0.784302
4.896;0.788879
4.897;0.793457
4.898;0.79834
4.899;0.803223
4.9;0.808105
4.901;0.812683
4.902;0.817566
4.903;0.821838
4.904;0.825806
4.905;0.829468
4.906;0.832825
4.907;0.835266
4.908;0.837402
4.909;0.839233
4.91;0.840454
4.911;0.842285
4.912;0.844116
4.913;0.846252
4.914;0.848083
4.915;0.849609
4.916;0.85022
4.917;0.850525
4.918;0.85022
4.919;0.848999
4.92;0.847168
4.921;0.844727
4.922;0.84137
4.923;0.837402
4.924;0.83313
4.925;0.828247
4.926;0.823059
4.927;0.817871
4.928;0.812683
4.929;0.8078
4.93;0.802917
4.931;0.797729
4.932;0.792542
4.933;0.787354
4.934;0.782166
4.935;0.776978
4.936;0.772095
4.937;0.767517
4.938;0.762634
4.939;0.757751
4.94;0.752258
4.941;0.746765
4.942;0.740967
4.943;0.735779
4.944;0.730896
4.945;0.726013
4.946;0.721741
4.947;0.717163
4.948;0.712891
4.949;0.708313
4.95;0.703735
4.951;0.698853
4.952;0.694275
4.953;0.690002
4.954;0.68573
4.955;0.681763
4.956;0.678406
4.957;0.675354
4.958;0.672607
4.959;0.670471
4.96;0.668945
4.961;0.667419
4.962;0.666199
4.963;0.664978
4.964;0.663757
4.965;0.662537
4.966;0.661926
4.967;0.661621
4.968;0.661926
4.969;0.662842
4.97;0.664062
4.971;0.665588
4.972;0.666809
4.973;0.66803
4.974;0.66803
4.975;0.667114
4.976;0.664368
4.977;0.6604
4.978;0.655212
4.979;0.648193
4.98;0.639954
4.981;0.629883
4.982;0.618286
4.983;0.604553
4.984;0.589294
4.985;0.57251
4.986;0.55481
4.987;0.537109
4.988;0.520325
4.989;0.504761
4.99;0.491638
4.991;0.480957
4.992;0.473938
4.993;0.470886
4.994;0.471802
4.995;0.47699
4.996;0.487366
4.997;0.50293
4.998;0.524597
4.999;0.552979
5;0.588989
5.001;0.632629
5.002;0.684814
5.003;0.745239
5.004;0.814514
5.005;0.892334
5.006;0.978394
5.007;1.07239
5.008;1.17401
5.009;1.28143
5.01;1.39282
5.011;1.50543
5.012;1.61591
5.013;1.72241
5.014;1.8222
5.015;1.91406
5.016;1.99646
5.017;2.06818
5.018;2.1283
5.019;2.1756
5.02;2.20978
5.021;2.22961
5.022;2.23419
5.023;2.22198
5.024;2.19238
5.025;2.14478
5.026;2.07886
5.027;1.99585
5.028;1.89728
5.029;1.78528
5.03;1.66229
5.031;1.53198
5.032;1.3974
5.033;1.26099
5.034;1.1261
5.035;0.994568
5.036;0.868225
5.037;0.749512
5.038;0.639038
5.039;0.538635
5.04;0.448914
5.041;0.370483
5.042;0.303955
5.043;0.249329
5.044;0.205994
5.045;0.173645
5.046;0.152283
5.047;0.140381
5.048;0.137634
5.049;0.142822
5.05;0.155029
5.051;0.172729
5.052;0.195007
5.053;0.220642
5.054;0.247803
5.055;0.275879
5.056;0.303955
5.057;0.331421
5.058;0.357666
5.059;0.382385
5.06;0.405273
5.061;0.426331
5.062;0.445557
5.063;0.462952
5.064;0.47821
5.065;0.491333
5.066;0.503235
5.067;0.513611
5.068;0.522766
5.069;0.531311
5.07;0.539551
5.071;0.547485
5.072;0.554199
5.073;0.560303
5.074;0.565186
5.075;0.568848
5.076;0.571289
5.077;0.572815
5.078;0.574036
5.079;0.574951
5.08;0.575867
5.081;0.576782
5.082;0.577698
5.083;0.578308
5.084;0.579224
5.085;0.580139
5.086;0.581055
5.087;0.58197
5.088;0.583191
5.089;0.584412
5.09;0.585632
5.091;0.587463
5.092;0.589294
5.093;0.591736
5.094;0.594482
5.095;0.597839
5.096;0.601501
5.097;0.605469
5.098;0.609741
5.099;0.614319
5.1;0.619202
5.101;0.62439
5.102;0.629578
5.103;0.63446
5.104;0.639038
5.105;0.643005
5.106;0.646362
5.107;0.649414
5.108;0.65155
5.109;0.652771
5.11;0.653687
5.111;0.654297
5.112;0.653992
5.113;0.653381
5.114;0.652466
5.115;0.650635
5.116;0.648804
5.117;0.646667
5.118;0.644836
5.119;0.6427
5.12;0.640564
5.121;0.638733
5.122;0.636902
5.123;0.635071
5.124;0.633545
5.125;0.632324
5.126;0.631714
5.127;0.631409
5.128;0.631104
5.129;0.631409
5.13;0.632019
5.131;0.632629
5.132;0.63385
5.133;0.635071
5.134;0.636292
5.135;0.637817
5.136;0.639648
5.137;0.641174
5.138;0.642395
5.139;0.643616
5.14;0.644226
5.141;0.644531
5.142;0.644531
5.143;0.644531
5.144;0.644836
5.145;0.645142
5.146;0.645447
5.147;0.646057
5.148;0.646973
5.149;0.647888
5.15;0.648804
5.151;0.649414
5.152;0.649719
5.153;0.649719
5.154;0.649414
5.155;0.649414
5.156;0.649414
5.157;0.649414
5.158;0.650024
5.159;0.650635
5.16;0.65155
5.161;0.652771
5.162;0.653992
5.163;0.655518
5.164;0.657043
5.165;0.658875
5.166;0.661011
5.167;0.663147
5.168;0.665588
5.169;0.668335
5.17;0.671387
5.171;0.674744
5.172;0.678101
5.173;0.681458
5.174;0.68512
5.175;0.688477
5.176;0.691833
5.177;0.69519
5.178;0.698242
5.179;0.701599
5.18;0.705261
5.181;0.708923
5.182;0.712891
5.183;0.717163
5.184;0.720825
5.185;0.724487
5.186;0.727844
5.187;0.730591
5.188;0.733337
5.189;0.736084
5.19;0.738831
5.191;0.742188
5.192;0.74585
5.193;0.749817
5.194;0.754395
5.195;0.758667
5.196;0.762634
5.197;0.766602
5.198;0.769653
5.199;0.772705
5.2;0.775452
5.201;0.777893
5.202;0.780334
5.203;0.782166
5.204;0.783691
5.205;0.784912
5.206;0.785522
5.207;0.785217
5.208;0.784607
5.209;0.783386
5.21;0.781555
5.211;0.779419
5.212;0.776367
5.213;0.77301
5.214;0.769043
5.215;0.764771
5.216;0.759583
5.217;0.754395
5.218;0.748901
5.219;0.743408
5.22;0.73822
5.221;0.733032
5.222;0.728455
5.223;0.724182
5.224;0.720215
5.225;0.716248
5.226;0.71228
5.227;0.708313
5.228;0.703735
5.229;0.699463
5.23;0.694885
5.231;0.690308
5.232;0.68634
5.233;0.682678
5.234;0.679626
5.235;0.676575
5.236;0.673828
5.237;0.671387
5.238;0.668945
5.239;0.666504
5.24;0.664062
5.241;0.661621
5.242;0.65979
5.243;0.658264
5.244;0.657043
5.245;0.656433
5.246;0.655823
5.247;0.655212
5.248;0.654602
5.249;0.653992
5.25;0.653687
5.251;0.653687
5.252;0.653687
5.253;0.653687
5.254;0.653381
5.255;0.652466
5.256;0.65155
5.257;0.650024
5.258;0.647888
5.259;0.645447
5.26;0.6427
5.261;0.639343
5.262;0.636292
5.263;0.632629
5.264;0.629272
5.265;0.626221
5.266;0.622864
5.267;0.619812
5.268;0.61676
5.269;0.614319
5.27;0.612183
5.271;0.610352
5.272;0.609436
5.273;0.609436
5.274;0.609741
5.275;0.610657
5.276;0.612183
5.277;0.614014
5.278;0.61676
5.279;0.619507
5.28;0.622864
5.281;0.625916
5.282;0.628967
5.283;0.631409
5.284;0.63385
5.285;0.635376
5.286;0.636597
5.287;0.637512
5.288;0.637817
5.289;0.638428
5.29;0.639343
5.291;0.640564
5.292;0.641785
5.293;0.6427
5.294;0.643616
5.295;0.644531
5.296;0.645142
5.297;0.646362
5.298;0.648193
5.299;0.65033
5.3;0.652771
5.301;0.655823
5.302;0.659485
5.303;0.663147
5.304;0.667419
5.305;0.671997
5.306;0.676575
5.307;0.681152
5.308;0.686035
5.309;0.690613
5.31;0.69519
5.311;0.699768
5.312;0.704956
5.313;0.710144
5.314;0.715637
5.315;0.72113
5.316;0.726624
5.317;0.731201
5.318;0.735474
5.319;0.738831
5.32;0.741577
5.321;0.743103
5.322;0.744324
5.323;0.745239
5.324;0.745544
5.325;0.74585
5.326;0.74585
5.327;0.745544
5.328;0.744934
5.329;0.743713
5.33;0.741577
5.331;0.738831
5.332;0.735474
5.333;0.731506
5.334;0.726929
5.335;0.722351
5.336;0.717468
5.337;0.71228
5.338;0.707397
5.339;0.702209
5.34;0.697327
5.341;0.692749
5.342;0.688782
5.343;0.684814
5.344;0.681152
5.345;0.677795
5.346;0.674438
5.347;0.670776
5.348;0.667419
5.349;0.664062
5.35;0.6604
5.351;0.656738
5.352;0.652161
5.353;0.647583
5.354;0.6427
5.355;0.637512
5.356;0.632019
5.357;0.626526
5.358;0.620728
5.359;0.614929
5.36;0.608826
5.361;0.603027
5.362;0.597229
5.363;0.591125
5.364;0.585327
5.365;0.579834
5.366;0.574341
5.367;0.569153
5.368;0.564575
5.369;0.560608
5.37;0.557251
5.371;0.554504
5.372;0.552063
5.373;0.550232
5.374;0.548706
5.375;0.547485
5.376;0.546875
5.377;0.54657
5.378;0.54657
5.379;0.546875
5.38;0.547485
5.381;0.548401
5.382;0.549011
5.383;0.549316
5.384;0.549622
5.385;0.549622
5.386;0.549316
5.387;0.548401
5.388;0.546875
5.389;0.544434
5.39;0.541382
5.391;0.537415
5.392;0.532532
5.393;0.526123
5.394;0.518188
5.395;0.508728
5.396;0.497437
5.397;0.484314
5.398;0.46936
5.399;0.452881
5.4;0.435486
5.401;0.41687
5.402;0.39856
5.403;0.380249
5.404;0.362854
5.405;0.346985
5.406;0.333557
5.407;0.323181
5.408;0.316467
5.409;0.314026
5.41;0.316467
5.411;0.324097
5.412;0.337219
5.413;0.35614
5.414;0.38147
5.415;0.413208
5.416;0.452271
5.417;0.499573
5.418;0.555725
5.419;0.621643
5.42;0.697327
5.421;0.782471
5.422;0.876465
5.423;0.978699
5.424;1.08856
5.425;1.20361
5.426;1.32202
5.427;1.44043
5.428;1.55609
5.429;1.66748
5.43;1.77277
5.431;1.87042
5.432;1.95923
5.433;2.03796
5.434;2.1048
5.435;2.1582
5.436;2.19727
5.437;2.21985
5.438;2.22473
5.439;2.211
5.44;2.17773
5.441;2.12463
5.442;2.05261
5.443;1.96289
5.444;1.8573
5.445;1.73859
5.446;1.60889
5.447;1.47156
5.448;1.32996
5.449;1.18622
5.45;1.0434
5.451;0.903625
5.452;0.769043
5.453;0.641785
5.454;0.523376
5.455;0.415039
5.456;0.318298
5.457;0.233765
5.458;0.162354
5.459;0.10376
5.46;0.0582886
5.461;0.0250244
5.462;0.00335693
5.463;-0.00762939
5.464;-0.0088501
5.465;-0.00152588
5.466;0.0131226
5.467;0.0335693
5.468;0.0585938
5.469;0.0863647
5.47;0.115967
5.471;0.145874
5.472;0.175171
5.473;0.203247
5.474;0.229187
5.475;0.252991
5.476;0.274353
5.477;0.293579
5.478;0.310974
5.479;0.326233
5.48;0.339661
5.481;0.351562
5.482;0.361938
5.483;0.371094
5.484;0.378723
5.485;0.385437
5.486;0.390625
5.487;0.395203
5.488;0.398865
5.489;0.401917
5.49;0.405273
5.491;0.408325
5.492;0.411682
5.493;0.414734
5.494;0.41748
5.495;0.420227
5.496;0.422363
5.497;0.423889
5.498;0.42511
5.499;0.42572
5.5;0.426025
5.501;0.426331
5.502;0.426636
5.503;0.426636
5.504;0.426025
5.505;0.425415
5.506;0.4245
5.507;0.423279
5.508;0.421753
5.509;0.419922
5.51;0.417786
5.511;0.415955
5.512;0.414429
5.513;0.413513
5.514;0.412903
5.515;0.412903
5.516;0.413208
5.517;0.414124
5.518;0.415344
5.519;0.41687
5.52;0.419006
5.521;0.421448
5.522;0.424194
5.523;0.426636
5.524;0.429077
5.525;0.431213
5.526;0.433044
5.527;0.43457
5.528;0.435791
5.529;0.437012
5.53;0.438538
5.531;0.440369
5.532;0.4422
5.533;0.444031
5.534;0.445862
5.535;0.447388
5.536;0.448608
5.537;0.450134
5.538;0.451355
5.539;0.452576
5.54;0.453796
5.541;0.455322
5.542;0.456848
5.543;0.458679
5.544;0.46051
5.545;0.462646
5.546;0.465698
5.547;0.46875
5.548;0.472107
5.549;0.475464
5.55;0.478821
5.551;0.481873
5.552;0.484924
5.553;0.487671
5.554;0.490112
5.555;0.492249
5.556;0.493774
5.557;0.49469
5.558;0.494995
5.559;0.49469
5.56;0.49408
5.561;0.492859
5.562;0.491638
5.563;0.490112
5.564;0.488892
5.565;0.487366
5.566;0.48645
5.567;0.485229
5.568;0.484314
5.569;0.483398
5.57;0.482788
5.571;0.482178
5.572;0.481873
5.573;0.481567
5.574;0.481567
5.575;0.482178
5.576;0.483398
5.577;0.484924
5.578;0.487061
5.579;0.490112
5.58;0.493469
5.581;0.497131
5.582;0.500183
5.583;0.503235
5.584;0.505981
5.585;0.508423
5.586;0.510864
5.587;0.513306
5.588;0.516052
5.589;0.519104
5.59;0.522461
5.591;0.526428
5.592;0.530396
5.593;0.534668
5.594;0.538635
5.595;0.542603
5.596;0.546265
5.597;0.549927
5.598;0.553894
5.599;0.557861
5.6;0.562439
5.601;0.567017
5.602;0.571594
5.603;0.576477
5.604;0.581055
5.605;0.585327
5.606;0.589294
5.607;0.592651
5.608;0.595703
5.609;0.598145
5.61;0.599976
5.611;0.601807
5.612;0.603333
5.613;0.604553
5.614;0.605774
5.615;0.606995
5.616;0.608215
5.617;0.609131
5.618;0.609436
5.619;0.609131
5.62;0.608215
5.621;0.606995
5.622;0.605469
5.623;0.603943
5.624;0.602417
5.625;0.600586
5.626;0.598755
5.627;0.596924
5.628;0.594482
5.629;0.591431
5.63;0.588074
5.631;0.584106
5.632;0.579834
5.633;0.574951
5.634;0.569763
5.635;0.56427
5.636;0.558472
5.637;0.552979
5.638;0.547791
5.639;0.542603
5.64;0.53833
5.641;0.534363
5.642;0.531006
5.643;0.527954
5.644;0.524902
5.645;0.522156
5.646;0.519714
5.647;0.517883
5.648;0.516052
5.649;0.514526
5.65;0.513
5.651;0.51178
5.652;0.510254
5.653;0.509338
5.654;0.508118
5.655;0.506592
5.656;0.505371
5.657;0.50415
5.658;0.502625
5.659;0.501099
5.66;0.499573
5.661;0.497437
5.662;0.494995
5.663;0.492554
5.664;0.490417
5.665;0.488586
5.666;0.487366
5.667;0.486755
5.668;0.48645
5.669;0.486145
5.67;0.486145
5.671;0.48584
5.672;0.485535
5.673;0.484924
5.674;0.484314
5.675;0.483398
5.676;0.481873
5.677;0.480347
5.678;0.478516
5.679;0.476379
5.68;0.474243
5.681;0.471802
5.682;0.46875
5.683;0.466003
5.684;0.462952
5.685;0.4599
5.686;0.456848
5.687;0.453491
5.688;0.450439
5.689;0.447693
5.69;0.445251
5.691;0.443115
5.692;0.441589
5.693;0.440063
5.694;0.438843
5.695;0.438232
5.696;0.438232
5.697;0.438843
5.698;0.439758
5.699;0.441284
5.7;0.443115
5.701;0.445251
5.702;0.447388
5.703;0.449524
5.704;0.452271
5.705;0.455017
5.706;0.457764
5.707;0.460815
5.708;0.463867
5.709;0.466919
5.71;0.469666
5.711;0.472412
5.712;0.474854
5.713;0.4776
5.714;0.480042
5.715;0.483093
5.716;0.48645
5.717;0.490417
5.718;0.49469
5.719;0.499268
5.72;0.503845
5.721;0.508728
5.722;0.513611
5.723;0.518188
5.724;0.523071
5.725;0.527344
5.726;0.531006
5.727;0.534668
5.728;0.53833
5.729;0.541687
5.73;0.545044
5.731;0.547791
5.732;0.550232
5.733;0.552673
5.734;0.55481
5.735;0.557251
5.736;0.559692
5.737;0.562134
5.738;0.565186
5.739;0.567932
5.74;0.570984
5.741;0.574036
5.742;0.577087
5.743;0.579834
5.744;0.582275
5.745;0.584717
5.746;0.586548
5.747;0.588074
5.748;0.589294
5.749;0.5896
5.75;0.5896
5.751;0.588684
5.752;0.587769
5.753;0.585938
5.754;0.583801
5.755;0.58075
5.756;0.577087
5.757;0.57251
5.758;0.567322
5.759;0.561218
5.76;0.55481
5.761;0.547485
5.762;0.540161
5.763;0.532837
5.764;0.525513
5.765;0.518494
5.766;0.512085
5.767;0.505981
5.768;0.500488
5.769;0.495605
5.77;0.491333
5.771;0.487366
5.772;0.483704
5.773;0.480042
5.774;0.476685
5.775;0.473022
5.776;0.46936
5.777;0.465393
5.778;0.461426
5.779;0.457458
5.78;0.453186
5.781;0.448914
5.782;0.444641
5.783;0.439758
5.784;0.43457
5.785;0.429382
5.786;0.423889
5.787;0.418701
5.788;0.413818
5.789;0.408936
5.79;0.404358
5.791;0.400085
5.792;0.396118
5.793;0.392151
5.794;0.388794
5.795;0.386047
5.796;0.383606
5.797;0.38208
5.798;0.380859
5.799;0.380554
5.8;0.380249
5.801;0.380554
5.802;0.380859
5.803;0.38147
5.804;0.382385
5.805;0.382996
5.806;0.383606
5.807;0.383301
5.808;0.381775
5.809;0.379639
5.81;0.376282
5.811;0.371704
5.812;0.366211
5.813;0.359802
5.814;0.352173
5.815;0.343628
5.816;0.333252
5.817;0.321045
5.818;0.306396
5.819;0.289612
5.82;0.271301
5.821;0.25238
5.822;0.233459
5.823;0.215759
5.824;0.200195
5.825;0.187073
5.826;0.177002
5.827;0.170593
5.828;0.168152
5.829;0.169983
5.83;0.176392
5.831;0.187988
5.832;0.205383
5.833;0.229492
5.834;0.260925
5.835;0.299988
5.836;0.3479
5.837;0.404968
5.838;0.471191
5.839;0.54718
5.84;0.632935
5.841;0.727844
5.842;0.831604
5.843;0.943298
5.844;1.06079
5.845;1.18164
5.846;1.30219
5.847;1.42059
5.848;1.53412
5.849;1.64154
5.85;1.74133
5.851;1.83197
5.852;1.91193
5.853;1.97968
5.854;2.03369
5.855;2.07306
5.856;2.09595
5.857;2.10083
5.858;2.08679
5.859;2.05292
5.86;1.99921
5.861;1.92627
5.862;1.83594
5.863;1.72943
5.864;1.6095
5.865;1.47858
5.866;1.34003
5.867;1.19629
5.868;1.05133
5.869;0.906982
5.87;0.765991
5.871;0.631104
5.872;0.50354
5.873;0.385132
5.874;0.2771
5.875;0.180359
5.876;0.09552
5.877;0.0231934
5.878;-0.0363159
5.879;-0.0836182
5.88;-0.118408
5.881;-0.141602
5.882;-0.153503
5.883;-0.15564
5.884;-0.148926
5.885;-0.134583
5.886;-0.114441
5.887;-0.0897217
5.888;-0.0619507
5.889;-0.0320435
5.89;-0.00152588
5.891;0.0292969
5.892;0.0592041
5.893;0.0878906
5.894;0.114441
5.895;0.138855
5.896;0.160828
5.897;0.180359
5.898;0.198059
5.899;0.213623
5.9;0.227356
5.901;0.239258
5.902;0.249023
5.903;0.257568
5.904;0.264587
5.905;0.270081
5.906;0.274048
5.907;0.276489
5.908;0.278015
5.909;0.27832
5.91;0.27771
5.911;0.276489
5.912;0.274963
5.913;0.273438
5.914;0.271912
5.915;0.270691
5.916;0.269775
5.917;0.269165
5.918;0.26886
5.919;0.26886
5.92;0.269165
5.921;0.269775
5.922;0.270386
5.923;0.270691
5.924;0.271301
5.925;0.271301
5.926;0.271301
5.927;0.271301
5.928;0.271301
5.929;0.271606
5.93;0.272217
5.931;0.273132
5.932;0.274353
5.933;0.275574
5.934;0.276794
5.935;0.27771
5.936;0.27832
5.937;0.278931
5.938;0.279846
5.939;0.281372
5.94;0.283203
5.941;0.285645
5.942;0.288696
5.943;0.291748
5.944;0.295715
5.945;0.299377
5.946;0.303345
5.947;0.307312
5.948;0.310974
5.949;0.314331
5.95;0.317078
5.951;0.319824
5.952;0.322266
5.953;0.324707
5.954;0.326538
5.955;0.328369
5.956;0.32959
5.957;0.3302
5.958;0.330505
5.959;0.330505
5.96;0.330505
5.961;0.3302
5.962;0.329895
5.963;0.329895
5.964;0.32959
5.965;0.328979
5.966;0.328674
5.967;0.328064
5.968;0.327454
5.969;0.327148
5.97;0.327148
5.971;0.326843
5.972;0.326843
5.973;0.327148
5.974;0.327759
5.975;0.328369
5.976;0.329285
5.977;0.3302
5.978;0.331116
5.979;0.331726
5.98;0.332031
5.981;0.332336
5.982;0.332642
5.983;0.332642
5.984;0.332642
5.985;0.332336
5.986;0.332336
5.987;0.332031
5.988;0.332031
5.989;0.332336
5.99;0.332642
5.991;0.332947
5.992;0.333252
5.993;0.333557
5.994;0.333557
5.995;0.333557
5.996;0.333557
5.997;0.333557
5.998;0.333557
5.999;0.333862
6;0.334473
6.001;0.335388
6.002;0.336914
6.003;0.33844
6.004;0.340881
6.005;0.343323
6.006;0.346375
6.007;0.349731
6.008;0.353394
6.009;0.357056
6.01;0.360718
6.011;0.36438
6.012;0.367737
6.013;0.371399
6.014;0.374756
6.015;0.378723
6.016;0.382385
6.017;0.386353
6.018;0.390015
6.019;0.393372
6.02;0.396423
6.021;0.399475
6.022;0.402222
6.023;0.404663
6.024;0.406799
6.025;0.408936
6.026;0.411072
6.027;0.413208
6.028;0.415344
6.029;0.417786
6.03;0.419617
6.031;0.421448
6.032;0.423279
6.033;0.424805
6.034;0.426331
6.035;0.427856
6.036;0.429077
6.037;0.429993
6.038;0.429688
6.039;0.428772
6.04;0.426636
6.041;0.423889
6.042;0.420837
6.043;0.417175
6.044;0.413208
6.045;0.408936
6.046;0.404358
6.047;0.399475
6.048;0.393982
6.049;0.388794
6.05;0.383606
6.051;0.378418
6.052;0.37384
6.053;0.369568
6.054;0.365601
6.055;0.361633
6.056;0.357971
6.057;0.354919
6.058;0.352173
6.059;0.349731
6.06;0.3479
6.061;0.346375
6.062;0.345459
6.063;0.344849
6.064;0.344238
6.065;0.343628
6.066;0.342712
6.067;0.341492
6.068;0.339355
6.069;0.336914
6.07;0.333862
6.071;0.330505
6.072;0.326843
6.073;0.323181
6.074;0.319519
6.075;0.315857
6.076;0.31189
6.077;0.308228
6.078;0.304565
6.079;0.300598
6.08;0.296936
6.081;0.293579
6.082;0.290527
6.083;0.288086
6.084;0.28595
6.085;0.284119
6.086;0.282898
6.087;0.281982
6.088;0.281067
6.089;0.280762
6.09;0.280151
6.091;0.279846
6.092;0.279846
6.093;0.280151
6.094;0.280457
6.095;0.281372
6.096;0.282593
6.097;0.284119
6.098;0.285645
6.099;0.28717
6.1;0.288696
6.101;0.290222
6.102;0.291138
6.103;0.291443
6.104;0.291748
6.105;0.291443
6.106;0.290833
6.107;0.290527
6.108;0.289917
6.109;0.289612
6.11;0.289612
6.111;0.289917
6.112;0.290222
6.113;0.289917
6.114;0.289001
6.115;0.28656
6.116;0.283203
6.117;0.278931
6.118;0.274048
6.119;0.269165
6.12;0.264282
6.121;0.259399
6.122;0.254822
6.123;0.250549
6.124;0.247192
6.125;0.243835
6.126;0.241089
6.127;0.238342
6.128;0.236511
6.129;0.234985
6.13;0.23407
6.131;0.233765
6.132;0.234375
6.133;0.235901
6.134;0.238037
6.135;0.241089
6.136;0.244751
6.137;0.249329
6.138;0.254517
6.139;0.260315
6.14;0.265808
6.141;0.271301
6.142;0.276489
6.143;0.281677
6.144;0.286865
6.145;0.292053
6.146;0.296631
6.147;0.300903
6.148;0.304565
6.149;0.306702
6.15;0.307922
6.151;0.308533
6.152;0.308838
6.153;0.309143
6.154;0.309753
6.155;0.310974
6.156;0.3125
6.157;0.314026
6.158;0.316162
6.159;0.318604
6.16;0.32135
6.161;0.325012
6.162;0.328674
6.163;0.332947
6.164;0.337524
6.165;0.341797
6.166;0.345764
6.167;0.349426
6.168;0.352783
6.169;0.35614
6.17;0.358887
6.171;0.361328
6.172;0.363159
6.173;0.364075
6.174;0.364075
6.175;0.363159
6.176;0.361023
6.177;0.358582
6.178;0.354919
6.179;0.350647
6.18;0.345154
6.181;0.339355
6.182;0.332947
6.183;0.326233
6.184;0.319519
6.185;0.312805
6.186;0.306396
6.187;0.299988
6.188;0.293579
6.189;0.287476
6.19;0.281372
6.191;0.275574
6.192;0.270081
6.193;0.264587
6.194;0.259399
6.195;0.254517
6.196;0.249329
6.197;0.244446
6.198;0.238953
6.199;0.233154
6.2;0.227356
6.201;0.221252
6.202;0.215149
6.203;0.209045
6.204;0.203247
6.205;0.197144
6.206;0.191345
6.207;0.185547
6.208;0.179443
6.209;0.17334
6.21;0.167542
6.211;0.162048
6.212;0.15686
6.213;0.151978
6.214;0.1474
6.215;0.143127
6.216;0.139771
6.217;0.136719
6.218;0.133972
6.219;0.132141
6.22;0.130615
6.221;0.129395
6.222;0.128784
6.223;0.128784
6.224;0.129089
6.225;0.129395
6.226;0.130005
6.227;0.13031
6.228;0.130615
6.229;0.13092
6.23;0.131226
6.231;0.131226
6.232;0.131226
6.233;0.13031
6.234;0.128174
6.235;0.124817
6.236;0.119934
6.237;0.11322
6.238;0.10498
6.239;0.0949097
6.24;0.0827026
6.241;0.0683594
6.242;0.0524902
6.243;0.0354004
6.244;0.0177002
6.245;-0.000610352
6.246;-0.0180054
6.247;-0.03479
6.248;-0.0500488
6.249;-0.0628662
6.25;-0.0732422
6.251;-0.0799561
6.252;-0.0830078
6.253;-0.0814819
6.254;-0.0744629
6.255;-0.0616455
6.256;-0.0421143
6.257;-0.0149536
6.258;0.0204468
6.259;0.0646973
6.26;0.118408
6.261;0.18158
6.262;0.254517
6.263;0.337219
6.264;0.429382
6.265;0.53009
6.266;0.638733
6.267;0.753784
6.268;0.872803
6.269;0.993042
6.27;1.11237
6.271;1.22803
6.272;1.3385
6.273;1.44196
6.274;1.53687
6.275;1.62109
6.276;1.69373
6.277;1.75293
6.278;1.79718
6.279;1.82526
6.28;1.83563
6.281;1.82709
6.282;1.79871
6.283;1.75079
6.284;1.68335
6.285;1.59821
6.286;1.49628
6.287;1.38
6.288;1.25214
6.289;1.11511
6.29;0.97229
6.291;0.826416
6.292;0.680542
6.293;0.536804
6.294;0.397949
6.295;0.266113
6.296;0.143738
6.297;0.0320435
6.298;-0.0683594
6.299;-0.15625
6.3;-0.231628
6.301;-0.294189
6.302;-0.343933
6.303;-0.38147
6.304;-0.407104
6.305;-0.421448
6.306;-0.425415
6.307;-0.420227
6.308;-0.407104
6.309;-0.387573
6.31;-0.363159
6.311;-0.335083
6.312;-0.305481
6.313;-0.274963
6.314;-0.245361
6.315;-0.216675
6.316;-0.190125
6.317;-0.165405
6.318;-0.142517
6.319;-0.12207
6.32;-0.10376
6.321;-0.0875854
6.322;-0.0744629
6.323;-0.0637817
6.324;-0.0561523
6.325;-0.0506592
6.326;-0.0473022
6.327;-0.0448608
6.328;-0.043335
6.329;-0.0421143
6.33;-0.0408936
6.331;-0.039978
6.332;-0.0390625
6.333;-0.0387573
6.334;-0.0390625
6.335;-0.039978
6.336;-0.0411987
6.337;-0.0427246
6.338;-0.0442505
6.339;-0.045166
6.34;-0.0457764
6.341;-0.0454712
6.342;-0.0439453
6.343;-0.0415039
6.344;-0.038147
6.345;-0.0344849
6.346;-0.0308228
6.347;-0.0271606
6.348;-0.0231934
6.349;-0.0195312
6.35;-0.015564
6.351;-0.0115967
6.352;-0.00732422
6.353;-0.00366211
6.354;-0.000305176
6.355;0.00274658
6.356;0.00518799
6.357;0.00701904
6.358;0.00854492
6.359;0.00946045
6.36;0.010376
6.361;0.0106812
6.362;0.0106812
6.363;0.010376
6.364;0.010376
6.365;0.0100708
6.366;0.010376
6.367;0.0106812
6.368;0.0115967
6.369;0.0125122
6.37;0.0137329
6.371;0.0149536
6.372;0.0164795
6.373;0.0180054
6.374;0.0198364
6.375;0.0219727
6.376;0.0238037
6.377;0.0259399
6.378;0.027771
6.379;0.0299072
6.38;0.0320435
6.381;0.0341797
6.382;0.0363159
6.383;0.0384521
6.384;0.0405884
6.385;0.0427246
6.386;0.0445557
6.387;0.0460815
6.388;0.0473022
6.389;0.0485229
6.39;0.0494385
6.391;0.050354
6.392;0.0512695
6.393;0.0524902
6.394;0.0537109
6.395;0.0549316
6.396;0.0561523
6.397;0.057373
6.398;0.0582886
6.399;0.0595093
6.4;0.0604248
6.401;0.0613403
6.402;0.0622559
6.403;0.0628662
6.404;0.0634766
6.405;0.0637817
6.406;0.0643921
6.407;0.0650024
6.408;0.0653076
6.409;0.065918
6.41;0.0668335
6.411;0.0674438
6.412;0.0683594
6.413;0.0695801
6.414;0.0708008
6.415;0.0723267
6.416;0.0738525
6.417;0.0759888
6.418;0.078125
6.419;0.0808716
6.42;0.0839233
6.421;0.0875854
6.422;0.0915527
6.423;0.09552
6.424;0.0991821
6.425;0.102539
6.426;0.105286
6.427;0.108032
6.428;0.110779
6.429;0.113525
6.43;0.116272
6.431;0.119324
6.432;0.122375
6.433;0.125427
6.434;0.128479
6.435;0.13092
6.436;0.133057
6.437;0.134888
6.438;0.136414
6.439;0.137329
6.44;0.13855
6.441;0.139771
6.442;0.141296
6.443;0.143127
6.444;0.145569
6.445;0.148621
6.446;0.151672
6.447;0.155029
6.448;0.158386
6.449;0.161438
6.45;0.164185
6.451;0.166626
6.452;0.169067
6.453;0.170898
6.454;0.172729
6.455;0.174255
6.456;0.175476
6.457;0.175781
6.458;0.175781
6.459;0.174866
6.46;0.173035
6.461;0.170898
6.462;0.168152
6.463;0.1651
6.464;0.161743
6.465;0.158081
6.466;0.154114
6.467;0.149841
6.468;0.145569
6.469;0.140991
6.47;0.136719
6.471;0.132751
6.472;0.129089
6.473;0.125427
6.474;0.12207
6.475;0.119019
6.476;0.115967
6.477;0.11322
6.478;0.110474
6.479;0.108337
6.48;0.105896
6.481;0.10376
6.482;0.101624
6.483;0.0991821
6.484;0.0970459
6.485;0.0952148
6.486;0.0930786
6.487;0.0906372
6.488;0.088501
6.489;0.0857544
6.49;0.0830078
6.491;0.0802612
6.492;0.0775146
6.493;0.0750732
6.494;0.0723267
6.495;0.0698853
6.496;0.0671387
6.497;0.0643921
6.498;0.0619507
6.499;0.0592041
6.5;0.0564575
6.501;0.0540161
6.502;0.0518799
6.503;0.0497437
6.504;0.0476074
6.505;0.0457764
6.506;0.0439453
6.507;0.0424194
6.508;0.0405884
6.509;0.0387573
6.51;0.0369263
6.511;0.0350952
6.512;0.0332642
6.513;0.0311279
6.514;0.0289917
6.515;0.0271606
6.516;0.0250244
6.517;0.0231934
6.518;0.0216675
6.519;0.0198364
6.52;0.0180054
6.521;0.015564
6.522;0.0131226
6.523;0.010376
6.524;0.00762939
6.525;0.00488281
6.526;0.00213623
6.527;-0.000610352
6.528;-0.00305176
6.529;-0.00579834
6.53;-0.00793457
6.531;-0.00976562
6.532;-0.0112915
6.533;-0.012207
6.534;-0.0128174
6.535;-0.0128174
6.536;-0.0128174
6.537;-0.0128174
6.538;-0.012207
6.539;-0.0112915
6.54;-0.010376
6.541;-0.00915527
6.542;-0.00793457
6.543;-0.00671387
6.544;-0.00549316
6.545;-0.00457764
6.546;-0.00396729
6.547;-0.00396729
6.548;-0.00427246
6.549;-0.00518799
6.55;-0.00640869
6.551;-0.00793457
6.552;-0.00976562
6.553;-0.0119019
6.554;-0.0140381
6.555;-0.0161743
6.556;-0.0180054
6.557;-0.0198364
6.558;-0.0213623
6.559;-0.022583
6.56;-0.0241089
6.561;-0.0253296
6.562;-0.0265503
6.563;-0.0271606
6.564;-0.0271606
6.565;-0.0268555
6.566;-0.0256348
6.567;-0.0238037
6.568;-0.0213623
6.569;-0.0183105
6.57;-0.0149536
6.571;-0.0115967
6.572;-0.00762939
6.573;-0.00396729
6.574;0
6.575;0.00396729
6.576;0.00793457
6.577;0.0119019
6.578;0.0164795
6.579;0.020752
6.58;0.0253296
6.581;0.0296021
6.582;0.0338745
6.583;0.0378418
6.584;0.0418091
6.585;0.0454712
6.586;0.0494385
6.587;0.0534058
6.588;0.0567627
6.589;0.0598145
6.59;0.0622559
6.591;0.0640869
6.592;0.0656128
6.593;0.0665283
6.594;0.0671387
6.595;0.0671387
6.596;0.0671387
6.597;0.0671387
6.598;0.0671387
6.599;0.067749
6.6;0.0680542
6.601;0.0680542
6.602;0.0674438
6.603;0.065918
6.604;0.0631714
6.605;0.0598145
6.606;0.055542
6.607;0.0506592
6.608;0.045166
6.609;0.0396729
6.61;0.0338745
6.611;0.0280762
6.612;0.0219727
6.613;0.0161743
6.614;0.010376
6.615;0.00427246
6.616;-0.00244141
6.617;-0.00915527
6.618;-0.0164795
6.619;-0.0238037
6.62;-0.0311279
6.621;-0.038147
6.622;-0.045166
6.623;-0.0515747
6.624;-0.0576782
6.625;-0.0631714
6.626;-0.0683594
6.627;-0.0732422
6.628;-0.0778198
6.629;-0.0823975
6.63;-0.0866699
6.631;-0.0912476
6.632;-0.0958252
6.633;-0.100708
6.634;-0.105896
6.635;-0.111694
6.636;-0.117798
6.637;-0.123901
6.638;-0.129395
6.639;-0.134277
6.64;-0.138245
6.641;-0.141296
6.642;-0.143738
6.643;-0.145264
6.644;-0.146484
6.645;-0.1474
6.646;-0.14801
6.647;-0.148315
6.648;-0.14801
6.649;-0.147095
6.65;-0.145569
6.651;-0.143433
6.652;-0.140381
6.653;-0.137024
6.654;-0.133362
6.655;-0.1297
6.656;-0.126343
6.657;-0.122986
6.658;-0.120239
6.659;-0.118103
6.66;-0.116882
6.661;-0.117188
6.662;-0.118713
6.663;-0.122375
6.664;-0.127869
6.665;-0.135498
6.666;-0.145569
6.667;-0.158081
6.668;-0.172729
6.669;-0.189209
6.67;-0.206909
6.671;-0.22522
6.672;-0.243835
6.673;-0.262146
6.674;-0.278625
6.675;-0.293579
6.676;-0.305786
6.677;-0.315247
6.678;-0.321655
6.679;-0.324707
6.68;-0.323792
6.681;-0.318298
6.682;-0.307007
6.683;-0.289612
6.684;-0.265198
6.685;-0.233154
6.686;-0.193176
6.687;-0.144653
6.688;-0.0875854
6.689;-0.0213623
6.69;0.0534058
6.691;0.137329
6.692;0.229492
6.693;0.329895
6.694;0.436707
6.695;0.548401
6.696;0.662842
6.697;0.776978
6.698;0.888367
6.699;0.995178
6.7;1.09528
6.701;1.18774
6.702;1.27106
6.703;1.34399
6.704;1.40533
6.705;1.45325
6.706;1.48682
6.707;1.50513
6.708;1.50635
6.709;1.48956
6.71;1.45447
6.711;1.40106
6.712;1.32965
6.713;1.24176
6.714;1.13892
6.715;1.02356
6.716;0.897827
6.717;0.764771
6.718;0.627441
6.719;0.488281
6.72;0.350342
6.721;0.215149
6.722;0.0854492
6.723;-0.0369263
6.724;-0.151062
6.725;-0.255127
6.726;-0.348206
6.727;-0.429688
6.728;-0.499573
6.729;-0.557556
6.73;-0.603943
6.731;-0.639038
6.732;-0.663147
6.733;-0.677795
6.734;-0.682983
6.735;-0.680237
6.736;-0.670776
6.737;-0.655212
6.738;-0.634766
6.739;-0.610657
6.74;-0.584412
6.741;-0.556946
6.742;-0.529175
6.743;-0.502014
6.744;-0.476074
6.745;-0.451355
6.746;-0.428162
6.747;-0.406494
6.748;-0.386353
6.749;-0.367737
6.75;-0.350952
6.751;-0.335693
6.752;-0.32196
6.753;-0.309448
6.754;-0.298462
6.755;-0.289001
6.756;-0.281067
6.757;-0.274658
6.758;-0.269775
6.759;-0.266113
6.76;-0.263977
6.761;-0.263062
6.762;-0.262756
6.763;-0.263367
6.764;-0.264282
6.765;-0.265503
6.766;-0.266418
6.767;-0.267029
6.768;-0.267334
6.769;-0.267639
6.77;-0.267334
6.771;-0.267334
6.772;-0.267334
6.773;-0.267639
6.774;-0.26825
6.775;-0.268555
6.776;-0.26886
6.777;-0.26886
6.778;-0.268555
6.779;-0.267639
6.78;-0.266113
6.781;-0.264282
6.782;-0.262146
6.783;-0.259705
6.784;-0.257263
6.785;-0.255432
6.786;-0.253906
6.787;-0.252991
6.788;-0.252686
6.789;-0.25238
6.79;-0.252075
6.791;-0.251465
6.792;-0.250549
6.793;-0.249023
6.794;-0.247192
6.795;-0.245056
6.796;-0.24292
6.797;-0.240479
6.798;-0.237732
6.799;-0.234985
6.8;-0.232544
6.801;-0.229797
6.802;-0.227356
6.803;-0.224609
6.804;-0.222168
6.805;-0.219116
6.806;-0.215759
6.807;-0.212097
6.808;-0.209045
6.809;-0.206299
6.81;-0.205078
6.811;-0.205383
6.812;-0.206909
6.813;-0.20874
6.814;-0.210571
6.815;-0.212402
6.816;-0.214233
6.817;-0.215454
6.818;-0.21698
6.819;-0.218201
6.82;-0.219727
6.821;-0.221252
6.822;-0.222778
6.823;-0.224304
6.824;-0.22583
6.825;-0.227051
6.826;-0.227966
6.827;-0.228271
6.828;-0.227661
6.829;-0.226746
6.83;-0.224609
6.831;-0.222168
6.832;-0.218811
6.833;-0.215149
6.834;-0.211182
6.835;-0.207214
6.836;-0.202942
6.837;-0.198975
6.838;-0.195312
6.839;-0.19165
6.84;-0.188293
6.841;-0.185242
6.842;-0.182495
6.843;-0.180359
6.844;-0.178528
6.845;-0.177307
6.846;-0.176697
6.847;-0.176392
6.848;-0.176086
6.849;-0.176086
6.85;-0.176086
6.851;-0.176086
6.852;-0.176086
6.853;-0.176086
6.854;-0.175476
6.855;-0.174255
6.856;-0.173035
6.857;-0.170898
6.858;-0.168457
6.859;-0.1651
6.86;-0.160828
6.861;-0.15564
6.862;-0.149841
6.863;-0.143738
6.864;-0.137634
6.865;-0.131531
6.866;-0.125427
6.867;-0.119019
6.868;-0.112
6.869;-0.10498
6.87;-0.0976562
6.871;-0.090332
6.872;-0.083313
6.873;-0.0762939
6.874;-0.0695801
6.875;-0.0631714
6.876;-0.0570679
6.877;-0.0512695
6.878;-0.0460815
6.879;-0.0415039
6.88;-0.0375366
6.881;-0.0344849
6.882;-0.0326538
6.883;-0.0314331
6.884;-0.0308228
6.885;-0.0311279
6.886;-0.0320435
6.887;-0.0332642
6.888;-0.03479
6.889;-0.0363159
6.89;-0.0378418
6.891;-0.0396729
6.892;-0.0421143
6.893;-0.0454712
6.894;-0.0497437
6.895;-0.0552368
6.896;-0.0610352
6.897;-0.0674438
6.898;-0.0735474
6.899;-0.0793457
6.9;-0.0848389
6.901;-0.0897217
6.902;-0.0946045
6.903;-0.098877
6.904;-0.102844
6.905;-0.106506
6.906;-0.109863
6.907;-0.11261
6.908;-0.115356
6.909;-0.118103
6.91;-0.12085
6.911;-0.123291
6.912;-0.125732
6.913;-0.127563
6.914;-0.1297
6.915;-0.131226
6.916;-0.132446
6.917;-0.133667
6.918;-0.134583
6.919;-0.135803
6.92;-0.137024
6.921;-0.138245
6.922;-0.139771
6.923;-0.141602
6.924;-0.143433
6.925;-0.145569
6.926;-0.1474
6.927;-0.149231
6.928;-0.151062
6.929;-0.152893
6.93;-0.154724
6.931;-0.15625
6.932;-0.158386
6.933;-0.160217
6.934;-0.162048
6.935;-0.163879
6.936;-0.16571
6.937;-0.167847
6.938;-0.169373
6.939;-0.171204
6.94;-0.173035
6.941;-0.174866
6.942;-0.177002
6.943;-0.179443
6.944;-0.182495
6.945;-0.186157
6.946;-0.189819
6.947;-0.193481
6.948;-0.196838
6.949;-0.199585
6.95;-0.202026
6.951;-0.204468
6.952;-0.206604
6.953;-0.20874
6.954;-0.210876
6.955;-0.213318
6.956;-0.215149
6.957;-0.21698
6.958;-0.218201
6.959;-0.219116
6.96;-0.219421
6.961;-0.219116
6.962;-0.219116
6.963;-0.218811
6.964;-0.218506
6.965;-0.218506
6.966;-0.217896
6.967;-0.21759
6.968;-0.21698
6.969;-0.21637
6.97;-0.215759
6.971;-0.215149
6.972;-0.214844
6.973;-0.213928
6.974;-0.213318
6.975;-0.213013
6.976;-0.212708
6.977;-0.213318
6.978;-0.214539
6.979;-0.21637
6.98;-0.218201
6.981;-0.220032
6.982;-0.221558
6.983;-0.222778
6.984;-0.223694
6.985;-0.223999
6.986;-0.224304
6.987;-0.223999
6.988;-0.223389
6.989;-0.222473
6.99;-0.220947
6.991;-0.219116
6.992;-0.21637
6.993;-0.213318
6.994;-0.209656
6.995;-0.205383
6.996;-0.200806
6.997;-0.195618
6.998;-0.19043
6.999;-0.184937
7;-0.179443
7.001;-0.17395
7.002;-0.168457
7.003;-0.163574
7.004;-0.158386
7.005;-0.153198
7.006;-0.148315
7.007;-0.143738
7.008;-0.13916
7.009;-0.134888
7.01;-0.130615
7.011;-0.126343
7.012;-0.121765
7.013;-0.116882
7.014;-0.111694
7.015;-0.107117
7.016;-0.102234
7.017;-0.0979614
7.018;-0.0939941
7.019;-0.090332
7.02;-0.0866699
7.021;-0.083313
7.022;-0.0799561
7.023;-0.0772095
7.024;-0.0747681
7.025;-0.072937
7.026;-0.0720215
7.027;-0.0717163
7.028;-0.0720215
7.029;-0.072937
7.03;-0.0744629
7.031;-0.0769043
7.032;-0.0799561
7.033;-0.0836182
7.034;-0.0881958
7.035;-0.0930786
7.036;-0.0979614
7.037;-0.103149
7.038;-0.108032
7.039;-0.112915
7.04;-0.117493
7.041;-0.12207
7.042;-0.126343
7.043;-0.13092
7.044;-0.135193
7.045;-0.139465
7.046;-0.143433
7.047;-0.147095
7.048;-0.150452
7.049;-0.154419
7.05;-0.158691
7.051;-0.163574
7.052;-0.168762
7.053;-0.174561
7.054;-0.180359
7.055;-0.186462
7.056;-0.192871
7.057;-0.199585
7.058;-0.206604
7.059;-0.213623
7.06;-0.220947
7.061;-0.228271
7.062;-0.234985
7.063;-0.241089
7.064;-0.246582
7.065;-0.251465
7.066;-0.255737
7.067;-0.259399
7.068;-0.263062
7.069;-0.266113
7.07;-0.268555
7.071;-0.270081
7.072;-0.270996
7.073;-0.271301
7.074;-0.270996
7.075;-0.270081
7.076;-0.268555
7.077;-0.266724
7.078;-0.264587
7.079;-0.262146
7.08;-0.259705
7.081;-0.257568
7.082;-0.255737
7.083;-0.254822
7.084;-0.254517
7.085;-0.255127
7.086;-0.257263
7.087;-0.26001
7.088;-0.264282
7.089;-0.26947
7.09;-0.276184
7.091;-0.284729
7.092;-0.2948
7.093;-0.307312
7.094;-0.32196
7.095;-0.338135
7.096;-0.355835
7.097;-0.374146
7.098;-0.392761
7.099;-0.411377
7.1;-0.429077
7.101;-0.445557
7.102;-0.4599
7.103;-0.471497
7.104;-0.479431
7.105;-0.483704
7.106;-0.483398
7.107;-0.47821
7.108;-0.467834
7.109;-0.45166
7.11;-0.428467
7.111;-0.39856
7.112;-0.361023
7.113;-0.315247
7.114;-0.260925
7.115;-0.197754
7.116;-0.126038
7.117;-0.0457764
7.118;0.0430298
7.119;0.139465
7.12;0.242615
7.121;0.350952
7.122;0.462036
7.123;0.57312
7.124;0.681458
7.125;0.784607
7.126;0.880737
7.127;0.968933
7.128;1.04767
7.129;1.11603
7.13;1.17279
7.131;1.21704
7.132;1.24725
7.133;1.26251
7.134;1.26129
7.135;1.24329
7.136;1.20789
7.137;1.1557
7.138;1.08734
7.139;1.00403
7.14;0.907288
7.141;0.798645
7.142;0.680542
7.143;0.55603
7.144;0.426941
7.145;0.296631
7.146;0.167236
7.147;0.0415039
7.148;-0.0787354
7.149;-0.191956
7.15;-0.296936
7.151;-0.392151
7.152;-0.47699
7.153;-0.550842
7.154;-0.613403
7.155;-0.664978
7.156;-0.705566
7.157;-0.736084
7.158;-0.756836
7.159;-0.768738
7.16;-0.772705
7.161;-0.769653
7.162;-0.760498
7.163;-0.745544
7.164;-0.726624
7.165;-0.703735
7.166;-0.678711
7.167;-0.651855
7.168;-0.62439
7.169;-0.596924
7.17;-0.570374
7.171;-0.545654
7.172;-0.522156
7.173;-0.500183
7.174;-0.479736
7.175;-0.46051
7.176;-0.443115
7.177;-0.427246
7.178;-0.412903
7.179;-0.399475
7.18;-0.387878
7.181;-0.377197
7.182;-0.367432
7.183;-0.358887
7.184;-0.350952
7.185;-0.344543
7.186;-0.338745
7.187;-0.333862
7.188;-0.329895
7.189;-0.326843
7.19;-0.324707
7.191;-0.323792
7.192;-0.323181
7.193;-0.322876
7.194;-0.323181
7.195;-0.323486
7.196;-0.323486
7.197;-0.323486
7.198;-0.322876
7.199;-0.322266
7.2;-0.321655
7.201;-0.32074
7.202;-0.319824
7.203;-0.318604
7.204;-0.317078
7.205;-0.315552
7.206;-0.313721
7.207;-0.312195
7.208;-0.310364
7.209;-0.308533
7.21;-0.306702
7.211;-0.304565
7.212;-0.302734
7.213;-0.300903
7.214;-0.299377
7.215;-0.298157
7.216;-0.297546
7.217;-0.297241
7.218;-0.297241
7.219;-0.296936
7.22;-0.296631
7.221;-0.296326
7.222;-0.29541
7.223;-0.2948
7.224;-0.293579
7.225;-0.292053
7.226;-0.290222
7.227;-0.288086
7.228;-0.28595
7.229;-0.283203
7.23;-0.280457
7.231;-0.27771
7.232;-0.274963
7.233;-0.272522
7.234;-0.270081
7.235;-0.267334
7.236;-0.264893
7.237;-0.262146
7.238;-0.259094
7.239;-0.255737
7.24;-0.25238
7.241;-0.249023
7.242;-0.245667
7.243;-0.24292
7.244;-0.240479
7.245;-0.238037
7.246;-0.235901
7.247;-0.233765
7.248;-0.231323
7.249;-0.228882
7.25;-0.22644
7.251;-0.223694
7.252;-0.220947
7.253;-0.217896
7.254;-0.214844
7.255;-0.211792
7.256;-0.20874
7.257;-0.205078
7.258;-0.201721
7.259;-0.198364
7.26;-0.195007
7.261;-0.192566
7.262;-0.190735
7.263;-0.189819
7.264;-0.189209
7.265;-0.189209
7.266;-0.189514
7.267;-0.189819
7.268;-0.190125
7.269;-0.190125
7.27;-0.189819
7.271;-0.189514
7.272;-0.188904
7.273;-0.187988
7.274;-0.187073
7.275;-0.185852
