0;-0.38269
0.001;-0.387573
0.002;-0.393677
0.003;-0.400696
0.004;-0.40802
0.005;-0.415649
0.006;-0.423584
0.007;-0.431213
0.008;-0.438538
0.009;-0.445251
0.01;-0.450745
0.011;-0.454712
0.012;-0.456543
0.013;-0.456238
0.014;-0.453491
0.015;-0.447998
0.016;-0.438843
0.017;-0.425415
0.018;-0.406799
0.019;-0.383301
0.02;-0.353699
0.021;-0.318298
0.022;-0.276794
0.023;-0.229187
0.024;-0.175781
0.025;-0.116882
0.026;-0.0531006
0.027;0.0149536
0.028;0.0866699
0.029;0.162354
0.03;0.242004
0.031;0.325317
0.032;0.411072
0.033;0.498657
0.034;0.586853
0.035;0.674133
0.036;0.759888
0.037;0.843201
0.038;0.922852
0.039;0.997925
0.04;1.06781
0.041;1.13159
0.042;1.18866
0.043;1.2384
0.044;1.27991
0.045;1.31226
0.046;1.33484
0.047;1.34674
0.048;1.34766
0.049;1.33728
0.05;1.31531
0.051;1.28082
0.052;1.23444
0.053;1.17615
0.054;1.10687
0.055;1.02814
0.056;0.941772
0.057;0.849304
0.058;0.752258
0.059;0.652466
0.06;0.551453
0.061;0.450439
0.062;0.350342
0.063;0.25238
0.064;0.157776
0.065;0.0668335
0.066;-0.0189209
0.067;-0.098877
0.068;-0.172119
0.069;-0.238037
0.07;-0.295715
0.071;-0.345459
0.072;-0.386963
0.073;-0.420227
0.074;-0.446472
0.075;-0.466003
0.076;-0.479431
0.077;-0.487671
0.078;-0.491638
0.079;-0.492554
0.08;-0.491333
0.081;-0.488586
0.082;-0.485535
0.083;-0.481873
0.084;-0.478516
0.085;-0.475769
0.086;-0.473328
0.087;-0.471802
0.088;-0.470886
0.089;-0.470886
0.09;-0.471802
0.091;-0.473022
0.092;-0.474548
0.093;-0.476379
0.094;-0.47821
0.095;-0.480042
0.096;-0.481873
0.097;-0.483398
0.098;-0.484924
0.099;-0.486145
0.1;-0.487366
0.101;-0.488281
0.102;-0.489197
0.103;-0.489807
0.104;-0.490112
0.105;-0.490112
0.106;-0.489807
0.107;-0.489807
0.108;-0.489807
0.109;-0.489807
0.11;-0.489807
0.111;-0.489502
0.112;-0.489197
0.113;-0.488892
0.114;-0.488586
0.115;-0.488281
0.116;-0.488281
0.117;-0.488586
0.118;-0.488586
0.119;-0.488281
0.12;-0.487976
0.121;-0.487366
0.122;-0.487061
0.123;-0.48645
0.124;-0.485535
0.125;-0.484619
0.126;-0.483704
0.127;-0.482788
0.128;-0.481262
0.129;-0.479736
0.13;-0.477905
0.131;-0.475769
0.132;-0.473633
0.133;-0.471497
0.134;-0.46936
0.135;-0.467529
0.136;-0.465698
0.137;-0.463867
0.138;-0.462036
0.139;-0.460205
0.14;-0.458679
0.141;-0.457458
0.142;-0.456543
0.143;-0.455627
0.144;-0.454712
0.145;-0.453796
0.146;-0.452881
0.147;-0.451965
0.148;-0.45105
0.149;-0.450439
0.15;-0.449219
0.151;-0.447998
0.152;-0.446777
0.153;-0.445251
0.154;-0.443726
0.155;-0.441895
0.156;-0.439758
0.157;-0.437622
0.158;-0.435181
0.159;-0.432434
0.16;-0.429688
0.161;-0.426941
0.162;-0.424194
0.163;-0.422058
0.164;-0.419922
0.165;-0.418091
0.166;-0.41626
0.167;-0.414429
0.168;-0.412292
0.169;-0.410156
0.17;-0.407715
0.171;-0.404968
0.172;-0.402527
0.173;-0.39978
0.174;-0.397339
0.175;-0.394897
0.176;-0.392456
0.177;-0.390015
0.178;-0.387268
0.179;-0.384521
0.18;-0.381775
0.181;-0.379028
0.182;-0.376587
0.183;-0.374756
0.184;-0.372925
0.185;-0.371399
0.186;-0.369873
0.187;-0.368347
0.188;-0.366821
0.189;-0.365295
0.19;-0.36377
0.191;-0.362244
0.192;-0.361023
0.193;-0.359802
0.194;-0.358887
0.195;-0.358276
0.196;-0.357361
0.197;-0.356445
0.198;-0.355225
0.199;-0.353394
0.2;-0.351257
0.201;-0.349121
0.202;-0.346375
0.203;-0.343323
0.204;-0.340271
0.205;-0.336914
0.206;-0.333252
0.207;-0.32959
0.208;-0.325928
0.209;-0.322266
0.21;-0.318298
0.211;-0.314331
0.212;-0.310364
0.213;-0.307007
0.214;-0.30365
0.215;-0.300598
0.216;-0.298157
0.217;-0.295715
0.218;-0.293884
0.219;-0.292053
0.22;-0.290222
0.221;-0.288696
0.222;-0.28717
0.223;-0.285645
0.224;-0.284119
0.225;-0.282898
0.226;-0.281372
0.227;-0.280151
0.228;-0.278625
0.229;-0.277405
0.23;-0.275879
0.231;-0.274353
0.232;-0.272827
0.233;-0.270996
0.234;-0.26947
0.235;-0.267944
0.236;-0.266113
0.237;-0.264282
0.238;-0.261841
0.239;-0.259399
0.24;-0.256958
0.241;-0.254211
0.242;-0.25177
0.243;-0.249329
0.244;-0.247192
0.245;-0.245056
0.246;-0.243225
0.247;-0.241394
0.248;-0.239563
0.249;-0.238037
0.25;-0.236816
0.251;-0.235596
0.252;-0.23468
0.253;-0.23407
0.254;-0.23407
0.255;-0.233765
0.256;-0.23407
0.257;-0.234375
0.258;-0.23468
0.259;-0.235596
0.26;-0.236511
0.261;-0.237732
0.262;-0.239258
0.263;-0.240784
0.264;-0.242615
0.265;-0.244751
0.266;-0.246887
0.267;-0.249329
0.268;-0.25177
0.269;-0.254211
0.27;-0.256653
0.271;-0.258484
0.272;-0.260315
0.273;-0.261536
0.274;-0.263062
0.275;-0.264282
0.276;-0.265503
0.277;-0.266724
0.278;-0.267639
0.279;-0.26825
0.28;-0.269165
0.281;-0.270386
0.282;-0.271301
0.283;-0.272217
0.284;-0.273132
0.285;-0.274048
0.286;-0.274658
0.287;-0.275269
0.288;-0.275879
0.289;-0.276489
0.29;-0.277405
0.291;-0.27832
0.292;-0.279846
0.293;-0.281677
0.294;-0.283813
0.295;-0.28595
0.296;-0.288391
0.297;-0.290527
0.298;-0.292358
0.299;-0.294189
0.3;-0.296021
0.301;-0.297852
0.302;-0.299683
0.303;-0.301514
0.304;-0.30304
0.305;-0.304565
0.306;-0.306091
0.307;-0.307312
0.308;-0.308533
0.309;-0.309448
0.31;-0.309753
0.311;-0.310059
0.312;-0.310364
0.313;-0.310364
0.314;-0.310669
0.315;-0.310974
0.316;-0.310974
0.317;-0.310669
0.318;-0.310059
0.319;-0.309448
0.32;-0.308533
0.321;-0.307922
0.322;-0.307312
0.323;-0.306702
0.324;-0.306396
0.325;-0.305786
0.326;-0.305481
0.327;-0.304871
0.328;-0.304565
0.329;-0.303955
0.33;-0.303345
0.331;-0.30304
0.332;-0.302429
0.333;-0.301819
0.334;-0.301208
0.335;-0.300598
0.336;-0.300293
0.337;-0.300293
0.338;-0.300293
0.339;-0.300293
0.34;-0.300598
0.341;-0.301208
0.342;-0.301819
0.343;-0.302734
0.344;-0.30365
0.345;-0.304565
0.346;-0.305176
0.347;-0.306091
0.348;-0.306396
0.349;-0.306702
0.35;-0.306702
0.351;-0.306396
0.352;-0.305786
0.353;-0.305176
0.354;-0.304871
0.355;-0.304565
0.356;-0.30426
0.357;-0.303345
0.358;-0.302429
0.359;-0.300903
0.36;-0.299377
0.361;-0.297241
0.362;-0.29541
0.363;-0.293274
0.364;-0.291443
0.365;-0.289917
0.366;-0.288696
0.367;-0.288086
0.368;-0.287476
0.369;-0.286865
0.37;-0.28595
0.371;-0.285034
0.372;-0.284119
0.373;-0.283203
0.374;-0.282288
0.375;-0.281677
0.376;-0.281067
0.377;-0.280151
0.378;-0.279236
0.379;-0.278015
0.38;-0.276184
0.381;-0.274353
0.382;-0.272217
0.383;-0.270081
0.384;-0.26825
0.385;-0.266113
0.386;-0.263977
0.387;-0.262146
0.388;-0.260315
0.389;-0.258789
0.39;-0.257263
0.391;-0.255737
0.392;-0.254517
0.393;-0.253296
0.394;-0.252686
0.395;-0.25238
0.396;-0.252075
0.397;-0.251465
0.398;-0.25116
0.399;-0.250854
0.4;-0.250549
0.401;-0.250549
0.402;-0.250549
0.403;-0.250854
0.404;-0.250854
0.405;-0.250549
0.406;-0.249939
0.407;-0.249329
0.408;-0.248413
0.409;-0.247498
0.41;-0.246582
0.411;-0.245056
0.412;-0.243225
0.413;-0.241394
0.414;-0.239258
0.415;-0.237122
0.416;-0.23468
0.417;-0.231934
0.418;-0.229187
0.419;-0.226746
0.42;-0.224304
0.421;-0.221863
0.422;-0.219727
0.423;-0.21759
0.424;-0.215149
0.425;-0.212402
0.426;-0.209961
0.427;-0.207214
0.428;-0.204773
0.429;-0.202637
0.43;-0.200195
0.431;-0.197449
0.432;-0.195007
0.433;-0.192871
0.434;-0.190735
0.435;-0.189209
0.436;-0.187988
0.437;-0.186157
0.438;-0.184326
0.439;-0.18219
0.44;-0.179749
0.441;-0.176697
0.442;-0.17334
0.443;-0.169983
0.444;-0.16571
0.445;-0.161438
0.446;-0.157166
0.447;-0.152588
0.448;-0.148315
0.449;-0.143738
0.45;-0.13916
0.451;-0.134583
0.452;-0.130005
0.453;-0.125732
0.454;-0.121765
0.455;-0.118408
0.456;-0.115356
0.457;-0.112915
0.458;-0.110779
0.459;-0.108948
0.46;-0.107117
0.461;-0.106201
0.462;-0.105286
0.463;-0.105591
0.464;-0.106201
0.465;-0.107117
0.466;-0.108643
0.467;-0.110474
0.468;-0.11261
0.469;-0.115051
0.47;-0.117798
0.471;-0.120544
0.472;-0.123291
0.473;-0.126648
0.474;-0.130005
0.475;-0.133667
0.476;-0.137024
0.477;-0.140381
0.478;-0.143433
0.479;-0.146484
0.48;-0.149841
0.481;-0.153809
0.482;-0.158081
0.483;-0.163269
0.484;-0.169067
0.485;-0.175476
0.486;-0.18219
0.487;-0.189209
0.488;-0.196228
0.489;-0.203857
0.49;-0.211487
0.491;-0.219421
0.492;-0.227356
0.493;-0.235291
0.494;-0.24353
0.495;-0.25177
0.496;-0.259705
0.497;-0.267639
0.498;-0.274963
0.499;-0.282288
0.5;-0.289307
0.501;-0.296326
0.502;-0.302734
0.503;-0.308533
0.504;-0.314026
0.505;-0.318909
0.506;-0.323181
0.507;-0.326843
0.508;-0.329895
0.509;-0.332336
0.51;-0.334167
0.511;-0.335693
0.512;-0.336914
0.513;-0.338135
0.514;-0.339661
0.515;-0.340881
0.516;-0.342102
0.517;-0.343323
0.518;-0.344543
0.519;-0.345764
0.52;-0.34729
0.521;-0.348816
0.522;-0.350037
0.523;-0.350952
0.524;-0.351868
0.525;-0.352173
0.526;-0.352783
0.527;-0.352783
0.528;-0.353088
0.529;-0.353088
0.53;-0.353394
0.531;-0.353394
0.532;-0.353394
0.533;-0.353088
0.534;-0.353088
0.535;-0.353088
0.536;-0.353394
0.537;-0.354309
0.538;-0.35614
0.539;-0.359192
0.54;-0.363464
0.541;-0.369568
0.542;-0.377502
0.543;-0.386658
0.544;-0.397034
0.545;-0.408936
0.546;-0.421448
0.547;-0.434265
0.548;-0.447388
0.549;-0.4599
0.55;-0.471191
0.551;-0.480652
0.552;-0.487976
0.553;-0.493164
0.554;-0.4953
0.555;-0.494385
0.556;-0.489197
0.557;-0.479431
0.558;-0.463867
0.559;-0.441895
0.56;-0.413513
0.561;-0.377808
0.562;-0.335388
0.563;-0.28595
0.564;-0.230103
0.565;-0.168457
0.566;-0.101624
0.567;-0.0302124
0.568;0.0460815
0.569;0.126648
0.57;0.211182
0.571;0.299072
0.572;0.390015
0.573;0.482788
0.574;0.576172
0.575;0.66864
0.576;0.758972
0.577;0.846252
0.578;0.929565
0.579;1.00891
0.58;1.08307
0.581;1.15173
0.582;1.21399
0.583;1.26892
0.584;1.31592
0.585;1.35345
0.586;1.38123
0.587;1.39832
0.588;1.40411
0.589;1.39832
0.59;1.38
0.591;1.34888
0.592;1.30493
0.593;1.24878
0.594;1.18073
0.595;1.1026
0.596;1.01624
0.597;0.922852
0.598;0.82428
0.599;0.721741
0.6;0.617371
0.601;0.51178
0.602;0.407104
0.603;0.30426
0.604;0.204163
0.605;0.108643
0.606;0.0180054
0.607;-0.0662231
0.608;-0.143433
0.609;-0.213013
0.61;-0.274048
0.611;-0.326233
0.612;-0.369568
0.613;-0.404053
0.614;-0.430603
0.615;-0.449219
0.616;-0.461426
0.617;-0.467834
0.618;-0.469666
0.619;-0.46814
0.62;-0.464478
0.621;-0.458984
0.622;-0.452576
0.623;-0.445862
0.624;-0.439453
0.625;-0.433655
0.626;-0.428772
0.627;-0.42511
0.628;-0.422363
0.629;-0.420532
0.63;-0.419617
0.631;-0.419617
0.632;-0.419922
0.633;-0.420837
0.634;-0.422363
0.635;-0.423889
0.636;-0.426025
0.637;-0.428162
0.638;-0.429993
0.639;-0.431824
0.64;-0.433655
0.641;-0.435181
0.642;-0.436707
0.643;-0.437927
0.644;-0.438843
0.645;-0.439758
0.646;-0.440369
0.647;-0.440674
0.648;-0.440674
0.649;-0.440063
0.65;-0.439453
0.651;-0.438232
0.652;-0.437012
0.653;-0.435791
0.654;-0.43457
0.655;-0.433655
0.656;-0.432739
0.657;-0.431824
0.658;-0.430908
0.659;-0.430603
0.66;-0.430298
0.661;-0.430298
0.662;-0.430298
0.663;-0.429993
0.664;-0.429688
0.665;-0.429382
0.666;-0.428467
0.667;-0.427551
0.668;-0.426636
0.669;-0.425415
0.67;-0.423889
0.671;-0.422363
0.672;-0.420837
0.673;-0.419006
0.674;-0.41687
0.675;-0.415039
0.676;-0.412903
0.677;-0.410461
0.678;-0.40802
0.679;-0.405273
0.68;-0.402832
0.681;-0.400391
0.682;-0.397949
0.683;-0.395813
0.684;-0.393982
0.685;-0.392151
0.686;-0.390625
0.687;-0.389404
0.688;-0.388794
0.689;-0.388184
0.69;-0.387878
0.691;-0.387878
0.692;-0.387878
0.693;-0.388184
0.694;-0.388489
0.695;-0.389099
0.696;-0.389404
0.697;-0.389404
0.698;-0.389404
0.699;-0.389099
0.7;-0.388489
0.701;-0.387878
0.702;-0.387268
0.703;-0.386658
0.704;-0.385742
0.705;-0.384521
0.706;-0.382996
0.707;-0.381165
0.708;-0.379333
0.709;-0.377197
0.71;-0.375061
0.711;-0.37262
0.712;-0.369873
0.713;-0.367126
0.714;-0.364075
0.715;-0.361328
0.716;-0.357971
0.717;-0.354614
0.718;-0.350952
0.719;-0.346985
0.72;-0.343018
0.721;-0.338745
0.722;-0.334778
0.723;-0.330505
0.724;-0.326233
0.725;-0.322266
0.726;-0.318298
0.727;-0.314636
0.728;-0.311584
0.729;-0.308228
0.73;-0.305176
0.731;-0.302124
0.732;-0.299377
0.733;-0.296631
0.734;-0.294495
0.735;-0.292358
0.736;-0.290222
0.737;-0.288696
0.738;-0.28717
0.739;-0.286255
0.74;-0.285645
0.741;-0.285645
0.742;-0.285645
0.743;-0.285645
0.744;-0.285339
0.745;-0.284729
0.746;-0.283508
0.747;-0.281982
0.748;-0.280151
0.749;-0.278015
0.75;-0.275574
0.751;-0.272522
0.752;-0.26886
0.753;-0.264587
0.754;-0.260315
0.755;-0.255432
0.756;-0.250244
0.757;-0.244446
0.758;-0.238953
0.759;-0.233154
0.76;-0.227966
0.761;-0.223083
0.762;-0.218506
0.763;-0.214233
0.764;-0.209961
0.765;-0.206299
0.766;-0.202942
0.767;-0.19989
0.768;-0.197144
0.769;-0.195312
0.77;-0.193481
0.771;-0.192566
0.772;-0.192261
0.773;-0.192566
0.774;-0.193481
0.775;-0.194397
0.776;-0.195618
0.777;-0.196838
0.778;-0.197754
0.779;-0.198364
0.78;-0.198669
0.781;-0.19928
0.782;-0.199585
0.783;-0.199585
0.784;-0.199585
0.785;-0.198975
0.786;-0.198059
0.787;-0.197144
0.788;-0.195923
0.789;-0.194397
0.79;-0.192566
0.791;-0.190735
0.792;-0.188904
0.793;-0.187683
0.794;-0.186462
0.795;-0.185547
0.796;-0.184937
0.797;-0.184326
0.798;-0.183716
0.799;-0.1828
0.8;-0.18219
0.801;-0.181885
0.802;-0.18158
0.803;-0.18158
0.804;-0.181274
0.805;-0.181274
0.806;-0.181274
0.807;-0.181274
0.808;-0.181274
0.809;-0.18158
0.81;-0.181885
0.811;-0.182495
0.812;-0.1828
0.813;-0.183411
0.814;-0.184326
0.815;-0.184937
0.816;-0.185242
0.817;-0.185852
0.818;-0.186157
0.819;-0.186768
0.82;-0.187683
0.821;-0.188904
0.822;-0.190125
0.823;-0.191345
0.824;-0.192871
0.825;-0.194397
0.826;-0.196533
0.827;-0.198669
0.828;-0.200806
0.829;-0.203552
0.83;-0.205994
0.831;-0.208435
0.832;-0.210571
0.833;-0.212708
0.834;-0.214539
0.835;-0.216064
0.836;-0.217285
0.837;-0.217896
0.838;-0.218201
0.839;-0.218506
0.84;-0.218201
0.841;-0.218201
0.842;-0.218201
0.843;-0.21759
0.844;-0.21698
0.845;-0.215759
0.846;-0.214233
0.847;-0.212402
0.848;-0.210571
0.849;-0.209045
0.85;-0.20752
0.851;-0.206299
0.852;-0.205078
0.853;-0.204773
0.854;-0.204773
0.855;-0.205078
0.856;-0.205383
0.857;-0.205994
0.858;-0.206299
0.859;-0.206909
0.86;-0.20813
0.861;-0.209351
0.862;-0.211182
0.863;-0.213013
0.864;-0.215149
0.865;-0.217285
0.866;-0.219421
0.867;-0.221558
0.868;-0.223389
0.869;-0.224915
0.87;-0.22644
0.871;-0.227661
0.872;-0.228882
0.873;-0.229797
0.874;-0.230713
0.875;-0.231323
0.876;-0.231018
0.877;-0.230408
0.878;-0.229492
0.879;-0.227661
0.88;-0.22583
0.881;-0.223694
0.882;-0.221558
0.883;-0.219116
0.884;-0.216675
0.885;-0.213623
0.886;-0.210876
0.887;-0.207825
0.888;-0.204773
0.889;-0.201416
0.89;-0.198059
0.891;-0.194397
0.892;-0.190735
0.893;-0.187378
0.894;-0.184326
0.895;-0.18158
0.896;-0.179138
0.897;-0.177002
0.898;-0.175476
0.899;-0.17395
0.9;-0.17334
0.901;-0.173035
0.902;-0.173035
0.903;-0.173645
0.904;-0.174255
0.905;-0.175171
0.906;-0.175476
0.907;-0.176086
0.908;-0.176086
0.909;-0.175781
0.91;-0.175171
0.911;-0.174255
0.912;-0.173035
0.913;-0.171814
0.914;-0.170288
0.915;-0.168457
0.916;-0.166626
0.917;-0.164795
0.918;-0.162354
0.919;-0.160217
0.92;-0.158081
0.921;-0.15625
0.922;-0.154419
0.923;-0.152893
0.924;-0.151062
0.925;-0.149536
0.926;-0.14801
0.927;-0.146179
0.928;-0.144958
0.929;-0.144043
0.93;-0.143433
0.931;-0.143433
0.932;-0.143433
0.933;-0.144043
0.934;-0.144653
0.935;-0.145569
0.936;-0.146179
0.937;-0.14679
0.938;-0.1474
0.939;-0.147705
0.94;-0.14801
0.941;-0.148315
0.942;-0.148621
0.943;-0.148926
0.944;-0.148621
0.945;-0.148621
0.946;-0.148315
0.947;-0.14801
0.948;-0.147705
0.949;-0.1474
0.95;-0.1474
0.951;-0.147095
0.952;-0.1474
0.953;-0.14801
0.954;-0.148315
0.955;-0.148926
0.956;-0.148926
0.957;-0.14801
0.958;-0.14679
0.959;-0.144653
0.96;-0.142517
0.961;-0.140076
0.962;-0.137634
0.963;-0.135193
0.964;-0.132751
0.965;-0.13031
0.966;-0.127869
0.967;-0.125122
0.968;-0.122375
0.969;-0.119324
0.97;-0.115967
0.971;-0.112305
0.972;-0.108643
0.973;-0.10498
0.974;-0.101624
0.975;-0.0982666
0.976;-0.0949097
0.977;-0.0912476
0.978;-0.0875854
0.979;-0.0839233
0.98;-0.0799561
0.981;-0.0756836
0.982;-0.071106
0.983;-0.0662231
0.984;-0.0613403
0.985;-0.0564575
0.986;-0.0509644
0.987;-0.0457764
0.988;-0.0405884
0.989;-0.0357056
0.99;-0.0308228
0.991;-0.0259399
0.992;-0.0213623
0.993;-0.0170898
0.994;-0.0131226
0.995;-0.00976562
0.996;-0.00701904
0.997;-0.00488281
0.998;-0.00335693
0.999;-0.00213623
1;-0.0012207
1.001;-0.000915527
1.002;-0.000610352
1.003;-0.000915527
1.004;-0.000915527
1.005;-0.0012207
1.006;-0.0012207
1.007;-0.0012207
1.008;-0.0012207
1.009;-0.00152588
1.01;-0.00183105
1.011;-0.00213623
1.012;-0.00305176
1.013;-0.00366211
1.014;-0.00457764
1.015;-0.00579834
1.016;-0.00701904
1.017;-0.00854492
1.018;-0.0106812
1.019;-0.0131226
1.02;-0.0161743
1.021;-0.0198364
1.022;-0.0244141
1.023;-0.0296021
1.024;-0.0354004
1.025;-0.0421143
1.026;-0.0494385
1.027;-0.0576782
1.028;-0.0662231
1.029;-0.0753784
1.03;-0.085144
1.031;-0.0949097
1.032;-0.10498
1.033;-0.114746
1.034;-0.124207
1.035;-0.133362
1.036;-0.141907
1.037;-0.150146
1.038;-0.157471
1.039;-0.16449
1.04;-0.171204
1.041;-0.177307
1.042;-0.183411
1.043;-0.188904
1.044;-0.193787
1.045;-0.198059
1.046;-0.201416
1.047;-0.204163
1.048;-0.205994
1.049;-0.207214
1.05;-0.207825
1.051;-0.207825
1.052;-0.20752
1.053;-0.206909
1.054;-0.206604
1.055;-0.205994
1.056;-0.205688
1.057;-0.205078
1.058;-0.204773
1.059;-0.204163
1.06;-0.203552
1.061;-0.202637
1.062;-0.201721
1.063;-0.2005
1.064;-0.198975
1.065;-0.197144
1.066;-0.195007
1.067;-0.193176
1.068;-0.19104
1.069;-0.189209
1.07;-0.187378
1.071;-0.185547
1.072;-0.183411
1.073;-0.181274
1.074;-0.179138
1.075;-0.177612
1.076;-0.176697
1.077;-0.176086
1.078;-0.176697
1.079;-0.178223
1.08;-0.181274
1.081;-0.185852
1.082;-0.191956
1.083;-0.199585
1.084;-0.20874
1.085;-0.219116
1.086;-0.230408
1.087;-0.24231
1.088;-0.254517
1.089;-0.266724
1.09;-0.27832
1.091;-0.288391
1.092;-0.297241
1.093;-0.303955
1.094;-0.308533
1.095;-0.310669
1.096;-0.309448
1.097;-0.30426
1.098;-0.2948
1.099;-0.279846
1.1;-0.258789
1.101;-0.231323
1.102;-0.196838
1.103;-0.15564
1.104;-0.107422
1.105;-0.0534058
1.106;0.00610352
1.107;0.0708008
1.108;0.140381
1.109;0.213928
1.11;0.292053
1.111;0.374146
1.112;0.4599
1.113;0.548401
1.114;0.638123
1.115;0.72876
1.116;0.818176
1.117;0.906067
1.118;0.990906
1.119;1.07208
1.12;1.14868
1.121;1.21979
1.122;1.2851
1.123;1.34369
1.124;1.39435
1.125;1.43616
1.126;1.46851
1.127;1.49048
1.128;1.50177
1.129;1.50177
1.13;1.49017
1.131;1.46637
1.132;1.43005
1.133;1.38123
1.134;1.32019
1.135;1.24847
1.136;1.1676
1.137;1.0788
1.138;0.984497
1.139;0.88562
1.14;0.783691
1.141;0.679932
1.142;0.575867
1.143;0.472717
1.144;0.372009
1.145;0.274658
1.146;0.18219
1.147;0.0952148
1.148;0.0146484
1.149;-0.0585938
1.15;-0.123901
1.151;-0.180664
1.152;-0.228882
1.153;-0.267944
1.154;-0.298767
1.155;-0.321655
1.156;-0.337219
1.157;-0.34668
1.158;-0.350952
1.159;-0.350952
1.16;-0.348206
1.161;-0.343018
1.162;-0.336914
1.163;-0.3302
1.164;-0.323486
1.165;-0.317383
1.166;-0.3125
1.167;-0.308533
1.168;-0.305786
1.169;-0.304565
1.17;-0.30426
1.171;-0.304871
1.172;-0.306396
1.173;-0.308838
1.174;-0.312195
1.175;-0.315857
1.176;-0.320129
1.177;-0.324402
1.178;-0.328674
1.179;-0.332642
1.18;-0.336609
1.181;-0.340271
1.182;-0.343323
1.183;-0.345764
1.184;-0.34729
1.185;-0.3479
1.186;-0.3479
1.187;-0.346985
1.188;-0.345154
1.189;-0.343018
1.19;-0.340271
1.191;-0.336914
1.192;-0.333557
1.193;-0.3302
1.194;-0.327148
1.195;-0.324097
1.196;-0.321655
1.197;-0.319214
1.198;-0.316772
1.199;-0.314331
1.2;-0.3125
1.201;-0.310669
1.202;-0.309753
1.203;-0.309143
1.204;-0.309143
1.205;-0.309448
1.206;-0.310059
1.207;-0.310974
1.208;-0.31189
1.209;-0.3125
1.21;-0.31311
1.211;-0.31311
1.212;-0.31311
1.213;-0.312805
1.214;-0.31189
1.215;-0.310974
1.216;-0.309143
1.217;-0.306702
1.218;-0.30365
1.219;-0.299988
1.22;-0.296021
1.221;-0.292053
1.222;-0.287781
1.223;-0.283203
1.224;-0.27832
1.225;-0.273743
1.226;-0.26886
1.227;-0.264587
1.228;-0.260315
1.229;-0.256653
1.23;-0.252991
1.231;-0.249634
1.232;-0.246582
1.233;-0.244141
1.234;-0.241699
1.235;-0.240173
1.236;-0.238342
1.237;-0.237122
1.238;-0.235596
1.239;-0.234375
1.24;-0.233154
1.241;-0.232239
1.242;-0.231323
1.243;-0.230713
1.244;-0.230103
1.245;-0.229492
1.246;-0.228882
1.247;-0.227966
1.248;-0.227356
1.249;-0.226746
1.25;-0.226135
1.251;-0.22583
1.252;-0.22522
1.253;-0.224609
1.254;-0.223694
1.255;-0.222778
1.256;-0.221863
1.257;-0.220642
1.258;-0.219421
1.259;-0.218201
1.26;-0.217285
1.261;-0.215759
1.262;-0.213928
1.263;-0.211792
1.264;-0.209351
1.265;-0.206604
1.266;-0.203247
1.267;-0.19989
1.268;-0.196533
1.269;-0.192566
1.27;-0.188599
1.271;-0.184631
1.272;-0.180664
1.273;-0.176697
1.274;-0.173035
1.275;-0.169373
1.276;-0.166016
1.277;-0.162964
1.278;-0.160217
1.279;-0.157471
1.28;-0.155334
1.281;-0.153503
1.282;-0.151672
1.283;-0.150146
1.284;-0.148621
1.285;-0.14679
1.286;-0.145264
1.287;-0.143738
1.288;-0.142517
1.289;-0.140991
1.29;-0.139771
1.291;-0.137939
1.292;-0.135498
1.293;-0.132751
1.294;-0.129089
1.295;-0.125122
1.296;-0.12085
1.297;-0.115967
1.298;-0.111084
1.299;-0.106201
1.3;-0.101624
1.301;-0.0967407
1.302;-0.0924683
1.303;-0.0881958
1.304;-0.0842285
1.305;-0.0805664
1.306;-0.0775146
1.307;-0.0750732
1.308;-0.0732422
1.309;-0.0720215
1.31;-0.0708008
1.311;-0.0701904
1.312;-0.0698853
1.313;-0.0695801
1.314;-0.0695801
1.315;-0.0698853
1.316;-0.0704956
1.317;-0.071106
1.318;-0.0717163
1.319;-0.0723267
1.32;-0.072937
1.321;-0.0735474
1.322;-0.0741577
1.323;-0.0747681
1.324;-0.0747681
1.325;-0.0747681
1.326;-0.0741577
1.327;-0.0732422
1.328;-0.0723267
1.329;-0.071106
1.33;-0.0701904
1.331;-0.0689697
1.332;-0.067749
1.333;-0.0668335
1.334;-0.0662231
1.335;-0.0650024
1.336;-0.0634766
1.337;-0.0616455
1.338;-0.0595093
1.339;-0.0570679
1.34;-0.0546265
1.341;-0.0524902
1.342;-0.050354
1.343;-0.0485229
1.344;-0.0466919
1.345;-0.0448608
1.346;-0.043335
1.347;-0.0418091
1.348;-0.0405884
1.349;-0.0393677
1.35;-0.0384521
1.351;-0.0378418
1.352;-0.0378418
1.353;-0.038147
1.354;-0.0384521
1.355;-0.0393677
1.356;-0.039978
1.357;-0.0408936
1.358;-0.0421143
1.359;-0.0430298
1.36;-0.0442505
1.361;-0.0454712
1.362;-0.0466919
1.363;-0.0476074
1.364;-0.0485229
1.365;-0.0491333
1.366;-0.0497437
1.367;-0.0500488
1.368;-0.050354
1.369;-0.0506592
1.37;-0.050354
1.371;-0.0497437
1.372;-0.0491333
1.373;-0.0482178
1.374;-0.0473022
1.375;-0.0463867
1.376;-0.0457764
1.377;-0.045166
1.378;-0.0442505
1.379;-0.0436401
1.38;-0.043335
1.381;-0.043335
1.382;-0.0439453
1.383;-0.0445557
1.384;-0.045166
1.385;-0.0457764
1.386;-0.0463867
1.387;-0.0469971
1.388;-0.0476074
1.389;-0.0482178
1.39;-0.0488281
1.391;-0.0494385
1.392;-0.050354
1.393;-0.0509644
1.394;-0.0515747
1.395;-0.0524902
1.396;-0.0531006
1.397;-0.0540161
1.398;-0.0546265
1.399;-0.055542
1.4;-0.0567627
1.401;-0.0582886
1.402;-0.0598145
1.403;-0.0610352
1.404;-0.0622559
1.405;-0.0634766
1.406;-0.0643921
1.407;-0.0656128
1.408;-0.0665283
1.409;-0.0674438
1.41;-0.0683594
1.411;-0.0695801
1.412;-0.0708008
1.413;-0.0720215
1.414;-0.0732422
1.415;-0.0744629
1.416;-0.0753784
1.417;-0.0756836
1.418;-0.0756836
1.419;-0.0750732
1.42;-0.0744629
1.421;-0.0735474
1.422;-0.072937
1.423;-0.0723267
1.424;-0.0717163
1.425;-0.071106
1.426;-0.0704956
1.427;-0.0695801
1.428;-0.0689697
1.429;-0.0683594
1.43;-0.0674438
1.431;-0.0665283
1.432;-0.065918
1.433;-0.0650024
1.434;-0.0643921
1.435;-0.0634766
1.436;-0.0628662
1.437;-0.0619507
1.438;-0.0610352
1.439;-0.0601196
1.44;-0.0595093
1.441;-0.0592041
1.442;-0.0585938
1.443;-0.0579834
1.444;-0.0570679
1.445;-0.0558472
1.446;-0.0540161
1.447;-0.0521851
1.448;-0.050354
1.449;-0.0479126
1.45;-0.0457764
1.451;-0.043335
1.452;-0.0411987
1.453;-0.0387573
1.454;-0.0363159
1.455;-0.0338745
1.456;-0.0314331
1.457;-0.0286865
1.458;-0.0259399
1.459;-0.0238037
1.46;-0.0216675
1.461;-0.0198364
1.462;-0.0183105
1.463;-0.0170898
1.464;-0.0161743
1.465;-0.015564
1.466;-0.0152588
1.467;-0.0152588
1.468;-0.015564
1.469;-0.0158691
1.47;-0.0164795
1.471;-0.0170898
1.472;-0.0180054
1.473;-0.0186157
1.474;-0.0195312
1.475;-0.0204468
1.476;-0.0213623
1.477;-0.022583
1.478;-0.0234985
1.479;-0.0244141
1.48;-0.0256348
1.481;-0.0268555
1.482;-0.027771
1.483;-0.027771
1.484;-0.0274658
1.485;-0.0265503
1.486;-0.0253296
1.487;-0.0241089
1.488;-0.022583
1.489;-0.0210571
1.49;-0.0189209
1.491;-0.0170898
1.492;-0.0146484
1.493;-0.0125122
1.494;-0.010376
1.495;-0.00793457
1.496;-0.00549316
1.497;-0.00274658
1.498;-0.000305176
1.499;0.00213623
1.5;0.00457764
1.501;0.00640869
1.502;0.00823975
1.503;0.0100708
1.504;0.0119019
1.505;0.0137329
1.506;0.015564
1.507;0.017395
1.508;0.0189209
1.509;0.0204468
1.51;0.0219727
1.511;0.0231934
1.512;0.0244141
1.513;0.0259399
1.514;0.0274658
1.515;0.0289917
1.516;0.0311279
1.517;0.0332642
1.518;0.0357056
1.519;0.0384521
1.52;0.0408936
1.521;0.0430298
1.522;0.045166
1.523;0.0469971
1.524;0.0485229
1.525;0.0500488
1.526;0.0518799
1.527;0.0534058
1.528;0.0552368
1.529;0.057373
1.53;0.0595093
1.531;0.0616455
1.532;0.0643921
1.533;0.0674438
1.534;0.0704956
1.535;0.0741577
1.536;0.0784302
1.537;0.0836182
1.538;0.0891113
1.539;0.0949097
1.54;0.101013
1.541;0.107117
1.542;0.11322
1.543;0.119324
1.544;0.125427
1.545;0.131531
1.546;0.137634
1.547;0.143433
1.548;0.148926
1.549;0.154114
1.55;0.158691
1.551;0.162964
1.552;0.166626
1.553;0.169373
1.554;0.171509
1.555;0.172424
1.556;0.172729
1.557;0.172424
1.558;0.171204
1.559;0.169373
1.56;0.166931
1.561;0.163879
1.562;0.160217
1.563;0.15625
1.564;0.151978
1.565;0.147705
1.566;0.143127
1.567;0.13855
1.568;0.133667
1.569;0.128784
1.57;0.123596
1.571;0.118713
1.572;0.113525
1.573;0.108032
1.574;0.101929
1.575;0.09552
1.576;0.0888062
1.577;0.0817871
1.578;0.0741577
1.579;0.0665283
1.58;0.0582886
1.581;0.0494385
1.582;0.0405884
1.583;0.0317383
1.584;0.0231934
1.585;0.0149536
1.586;0.00732422
1.587;-0.000305176
1.588;-0.00762939
1.589;-0.0146484
1.59;-0.0216675
1.591;-0.0280762
1.592;-0.0338745
1.593;-0.0393677
1.594;-0.0442505
1.595;-0.0485229
1.596;-0.0518799
1.597;-0.0543213
1.598;-0.0558472
1.599;-0.0567627
1.6;-0.0570679
1.601;-0.0570679
1.602;-0.0567627
1.603;-0.0564575
1.604;-0.0558472
1.605;-0.0549316
1.606;-0.0540161
1.607;-0.0534058
1.608;-0.0524902
1.609;-0.0518799
1.61;-0.0512695
1.611;-0.0506592
1.612;-0.0500488
1.613;-0.0497437
1.614;-0.0497437
1.615;-0.0497437
1.616;-0.0500488
1.617;-0.050354
1.618;-0.0506592
1.619;-0.0512695
1.62;-0.0518799
1.621;-0.0531006
1.622;-0.0543213
1.623;-0.055542
1.624;-0.0570679
1.625;-0.0585938
1.626;-0.0601196
1.627;-0.0619507
1.628;-0.0643921
1.629;-0.067749
1.63;-0.0723267
1.631;-0.0784302
1.632;-0.0860596
1.633;-0.0952148
1.634;-0.105896
1.635;-0.117798
1.636;-0.13031
1.637;-0.143127
1.638;-0.15625
1.639;-0.168762
1.64;-0.180969
1.641;-0.192566
1.642;-0.202332
1.643;-0.210266
1.644;-0.215759
1.645;-0.218811
1.646;-0.218506
1.647;-0.214539
1.648;-0.205994
1.649;-0.192261
1.65;-0.172119
1.651;-0.145874
1.652;-0.112305
1.653;-0.0720215
1.654;-0.0247192
1.655;0.0292969
1.656;0.0897217
1.657;0.15625
1.658;0.227966
1.659;0.304871
1.66;0.386353
1.661;0.471802
1.662;0.561218
1.663;0.653687
1.664;0.747681
1.665;0.842285
1.666;0.935669
1.667;1.02661
1.668;1.1142
1.669;1.1972
1.67;1.27563
1.671;1.34827
1.672;1.41449
1.673;1.47369
1.674;1.52527
1.675;1.56769
1.676;1.60065
1.677;1.62323
1.678;1.63483
1.679;1.63544
1.68;1.62415
1.681;1.60095
1.682;1.56555
1.683;1.51794
1.684;1.45874
1.685;1.38885
1.686;1.30951
1.687;1.22192
1.688;1.12793
1.689;1.02966
1.69;0.92804
1.691;0.825195
1.692;0.722046
1.693;0.620117
1.694;0.52002
1.695;0.423584
1.696;0.331116
1.697;0.244141
1.698;0.163269
1.699;0.0894165
1.7;0.0231934
1.701;-0.0350952
1.702;-0.0848389
1.703;-0.125732
1.704;-0.158081
1.705;-0.18219
1.706;-0.198975
1.707;-0.209656
1.708;-0.214844
1.709;-0.216064
1.71;-0.214233
1.711;-0.210571
1.712;-0.205383
1.713;-0.200195
1.714;-0.194702
1.715;-0.189819
1.716;-0.185852
1.717;-0.1828
1.718;-0.180664
1.719;-0.179443
1.72;-0.179138
1.721;-0.180054
1.722;-0.181885
1.723;-0.184631
1.724;-0.187683
1.725;-0.19104
1.726;-0.194702
1.727;-0.198364
1.728;-0.202026
1.729;-0.205688
1.73;-0.209045
1.731;-0.212708
1.732;-0.216064
1.733;-0.219421
1.734;-0.222168
1.735;-0.224915
1.736;-0.226746
1.737;-0.228271
1.738;-0.228882
1.739;-0.228577
1.74;-0.228271
1.741;-0.227356
1.742;-0.22644
1.743;-0.22522
1.744;-0.223999
1.745;-0.222168
1.746;-0.220337
1.747;-0.218201
1.748;-0.215759
1.749;-0.213013
1.75;-0.210266
1.751;-0.20752
1.752;-0.204773
1.753;-0.202026
1.754;-0.199585
1.755;-0.196838
1.756;-0.194092
1.757;-0.191345
1.758;-0.188599
1.759;-0.185852
1.76;-0.183411
1.761;-0.18158
1.762;-0.179749
1.763;-0.178223
1.764;-0.176697
1.765;-0.175171
1.766;-0.17395
1.767;-0.172424
1.768;-0.170898
1.769;-0.169373
1.77;-0.167542
1.771;-0.165405
1.772;-0.163269
1.773;-0.160828
1.774;-0.158386
1.775;-0.155945
1.776;-0.153809
1.777;-0.151672
1.778;-0.149536
1.779;-0.147705
1.78;-0.145569
1.781;-0.143738
1.782;-0.141602
1.783;-0.139465
1.784;-0.137329
1.785;-0.135498
1.786;-0.133667
1.787;-0.131836
1.788;-0.13031
1.789;-0.128784
1.79;-0.126953
1.791;-0.125427
1.792;-0.123291
1.793;-0.12146
1.794;-0.119324
1.795;-0.117188
1.796;-0.114746
1.797;-0.111694
1.798;-0.108643
1.799;-0.105286
1.8;-0.102234
1.801;-0.0991821
1.802;-0.0961304
1.803;-0.0933838
1.804;-0.0906372
1.805;-0.0878906
1.806;-0.0854492
1.807;-0.083313
1.808;-0.0808716
1.809;-0.0784302
1.81;-0.0759888
1.811;-0.0732422
1.812;-0.0704956
1.813;-0.067749
1.814;-0.0650024
1.815;-0.062561
1.816;-0.0601196
1.817;-0.0579834
1.818;-0.0558472
1.819;-0.0540161
1.82;-0.0521851
1.821;-0.050354
1.822;-0.0479126
1.823;-0.0448608
1.824;-0.0411987
1.825;-0.0369263
1.826;-0.0326538
1.827;-0.0280762
1.828;-0.0238037
1.829;-0.0195312
1.83;-0.0152588
1.831;-0.0109863
1.832;-0.00701904
1.833;-0.00305176
1.834;0.000305176
1.835;0.00366211
1.836;0.00640869
1.837;0.00915527
1.838;0.0112915
1.839;0.0128174
1.84;0.0140381
1.841;0.0146484
1.842;0.0149536
1.843;0.0152588
1.844;0.0158691
1.845;0.0164795
1.846;0.0170898
1.847;0.0177002
1.848;0.0186157
1.849;0.0195312
1.85;0.020752
1.851;0.0219727
1.852;0.0231934
1.853;0.0244141
1.854;0.0259399
1.855;0.027771
1.856;0.0299072
1.857;0.0320435
1.858;0.0344849
1.859;0.0372314
1.86;0.0396729
1.861;0.0418091
1.862;0.0439453
1.863;0.0454712
1.864;0.0469971
1.865;0.0479126
1.866;0.0488281
1.867;0.0491333
1.868;0.0488281
1.869;0.0485229
1.87;0.0479126
1.871;0.0473022
1.872;0.0469971
1.873;0.0466919
1.874;0.0463867
1.875;0.0463867
1.876;0.0463867
1.877;0.0469971
1.878;0.0479126
1.879;0.0485229
1.88;0.0494385
1.881;0.050354
1.882;0.0512695
1.883;0.0524902
1.884;0.0540161
1.885;0.0558472
1.886;0.0576782
1.887;0.0601196
1.888;0.0622559
1.889;0.0646973
1.89;0.0668335
1.891;0.0683594
1.892;0.0698853
1.893;0.071106
1.894;0.0720215
1.895;0.0726318
1.896;0.0732422
1.897;0.0735474
1.898;0.0741577
1.899;0.0741577
1.9;0.0744629
1.901;0.0747681
1.902;0.0750732
1.903;0.0753784
1.904;0.0756836
1.905;0.0762939
1.906;0.0765991
1.907;0.0769043
1.908;0.0772095
1.909;0.0772095
1.91;0.0775146
1.911;0.078125
1.912;0.0784302
1.913;0.0784302
1.914;0.0787354
1.915;0.0784302
1.916;0.0784302
1.917;0.0784302
1.918;0.0787354
1.919;0.0793457
1.92;0.0802612
1.921;0.0811768
1.922;0.0817871
1.923;0.0827026
1.924;0.083313
1.925;0.0842285
1.926;0.0848389
1.927;0.0857544
1.928;0.0863647
1.929;0.0869751
1.93;0.0875854
1.931;0.088501
1.932;0.0891113
1.933;0.0900269
1.934;0.0909424
1.935;0.0915527
1.936;0.0921631
1.937;0.0924683
1.938;0.0927734
1.939;0.0927734
1.94;0.0921631
1.941;0.0912476
1.942;0.090332
1.943;0.0888062
1.944;0.0872803
1.945;0.0857544
1.946;0.0836182
1.947;0.0814819
1.948;0.0790405
1.949;0.0765991
1.95;0.0744629
1.951;0.0723267
1.952;0.0708008
1.953;0.0692749
1.954;0.067749
1.955;0.0662231
1.956;0.0650024
1.957;0.0640869
1.958;0.0634766
1.959;0.0631714
1.96;0.0631714
1.961;0.0631714
1.962;0.0637817
1.963;0.0643921
1.964;0.0653076
1.965;0.0665283
1.966;0.0674438
1.967;0.0686646
1.968;0.0701904
1.969;0.0717163
1.97;0.0735474
1.971;0.0756836
1.972;0.0778198
1.973;0.0793457
1.974;0.0808716
1.975;0.0820923
1.976;0.0830078
1.977;0.0839233
1.978;0.0845337
1.979;0.0848389
1.98;0.085144
1.981;0.0854492
1.982;0.0857544
1.983;0.0863647
1.984;0.0869751
1.985;0.0878906
1.986;0.088501
1.987;0.0894165
1.988;0.0906372
1.989;0.0915527
1.99;0.0927734
1.991;0.0946045
1.992;0.0964355
1.993;0.0982666
1.994;0.100403
1.995;0.102539
1.996;0.104675
1.997;0.107117
1.998;0.109558
1.999;0.112
2;0.114136
2.001;0.116272
2.002;0.118103
2.003;0.119934
2.004;0.121765
2.005;0.123596
2.006;0.124817
2.007;0.126343
2.008;0.127258
2.009;0.128174
2.01;0.129395
2.011;0.130615
2.012;0.131836
2.013;0.133057
2.014;0.133972
2.015;0.134583
2.016;0.135498
2.017;0.136108
2.018;0.137329
2.019;0.138245
2.02;0.139465
2.021;0.140991
2.022;0.142517
2.023;0.144348
2.024;0.146179
2.025;0.14801
2.026;0.149536
2.027;0.150757
2.028;0.151978
2.029;0.152588
2.03;0.153198
2.031;0.153503
2.032;0.154114
2.033;0.154114
2.034;0.154419
2.035;0.154419
2.036;0.154724
2.037;0.154724
2.038;0.155029
2.039;0.155029
2.04;0.155029
2.041;0.154724
2.042;0.154114
2.043;0.153503
2.044;0.153198
2.045;0.152893
2.046;0.152893
2.047;0.152893
2.048;0.152893
2.049;0.153198
2.05;0.153503
2.051;0.153809
2.052;0.153809
2.053;0.153809
2.054;0.153503
2.055;0.153809
2.056;0.154114
2.057;0.154724
2.058;0.15564
2.059;0.156555
2.06;0.157166
2.061;0.157776
2.062;0.158081
2.063;0.158386
2.064;0.158386
2.065;0.158386
2.066;0.158081
2.067;0.157776
2.068;0.157471
2.069;0.157471
2.07;0.157776
2.071;0.158386
2.072;0.159607
2.073;0.161133
2.074;0.162659
2.075;0.164185
2.076;0.16571
2.077;0.167236
2.078;0.168762
2.079;0.170593
2.08;0.172119
2.081;0.17395
2.082;0.175476
2.083;0.177307
2.084;0.178833
2.085;0.180359
2.086;0.18219
2.087;0.183716
2.088;0.185852
2.089;0.187988
2.09;0.19043
2.091;0.193176
2.092;0.195923
2.093;0.198669
2.094;0.201721
2.095;0.204773
2.096;0.20813
2.097;0.211792
2.098;0.215149
2.099;0.218811
2.1;0.222473
2.101;0.22644
2.102;0.230103
2.103;0.23407
2.104;0.237732
2.105;0.241699
2.106;0.245361
2.107;0.248718
2.108;0.25177
2.109;0.254211
2.11;0.256042
2.111;0.257263
2.112;0.257874
2.113;0.258179
2.114;0.257874
2.115;0.256958
2.116;0.255432
2.117;0.253906
2.118;0.252075
2.119;0.250244
2.12;0.247803
2.121;0.245361
2.122;0.242615
2.123;0.239563
2.124;0.236206
2.125;0.232544
2.126;0.228271
2.127;0.223999
2.128;0.219116
2.129;0.213928
2.13;0.20874
2.131;0.202637
2.132;0.195923
2.133;0.188599
2.134;0.180054
2.135;0.170898
2.136;0.161438
2.137;0.151978
2.138;0.142517
2.139;0.133057
2.14;0.123596
2.141;0.114441
2.142;0.105286
2.143;0.0967407
2.144;0.0888062
2.145;0.0811768
2.146;0.0744629
2.147;0.0683594
2.148;0.0631714
2.149;0.0588989
2.15;0.055542
2.151;0.0527954
2.152;0.0512695
2.153;0.0500488
2.154;0.0494385
2.155;0.0491333
2.156;0.0491333
2.157;0.0497437
2.158;0.0506592
2.159;0.0518799
2.16;0.0534058
2.161;0.0546265
2.162;0.0561523
2.163;0.057373
2.164;0.0582886
2.165;0.0588989
2.166;0.0585938
2.167;0.0582886
2.168;0.0570679
2.169;0.0558472
2.17;0.0543213
2.171;0.0524902
2.172;0.0506592
2.173;0.0488281
2.174;0.0466919
2.175;0.0445557
2.176;0.0424194
2.177;0.0402832
2.178;0.038147
2.179;0.0357056
2.18;0.032959
2.181;0.0299072
2.182;0.0262451
2.183;0.0222778
2.184;0.0177002
2.185;0.0119019
2.186;0.00549316
2.187;-0.00213623
2.188;-0.0112915
2.189;-0.0213623
2.19;-0.0323486
2.191;-0.0439453
2.192;-0.0558472
2.193;-0.0680542
2.194;-0.0799561
2.195;-0.0915527
2.196;-0.102539
2.197;-0.112
2.198;-0.119934
2.199;-0.125427
2.2;-0.128784
2.201;-0.129089
2.202;-0.125732
2.203;-0.118103
2.204;-0.105896
2.205;-0.0881958
2.206;-0.0643921
2.207;-0.0344849
2.208;0.00213623
2.209;0.0454712
2.21;0.0952148
2.211;0.151367
2.212;0.213013
2.213;0.279236
2.214;0.350037
2.215;0.424805
2.216;0.50354
2.217;0.585938
2.218;0.671692
2.219;0.760193
2.22;0.85022
2.221;0.940552
2.222;1.02905
2.223;1.11511
2.224;1.1969
2.225;1.2738
2.226;1.34552
2.227;1.41174
2.228;1.47156
2.229;1.52466
2.23;1.57043
2.231;1.60767
2.232;1.63513
2.233;1.65253
2.234;1.65924
2.235;1.65558
2.236;1.64093
2.237;1.61499
2.238;1.57806
2.239;1.52954
2.24;1.47003
2.241;1.40045
2.242;1.32233
2.243;1.23657
2.244;1.14594
2.245;1.05133
2.246;0.954285
2.247;0.856628
2.248;0.758972
2.249;0.662537
2.25;0.568237
2.251;0.4776
2.252;0.391235
2.253;0.309753
2.254;0.23468
2.255;0.16571
2.256;0.104065
2.257;0.0500488
2.258;0.00396729
2.259;-0.0341797
2.26;-0.0646973
2.261;-0.0878906
2.262;-0.104675
2.263;-0.115662
2.264;-0.121765
2.265;-0.123901
2.266;-0.123291
2.267;-0.120544
2.268;-0.116577
2.269;-0.111694
2.27;-0.107117
2.271;-0.102539
2.272;-0.098877
2.273;-0.0958252
2.274;-0.0933838
2.275;-0.0921631
2.276;-0.0918579
2.277;-0.0918579
2.278;-0.0927734
2.279;-0.0939941
2.28;-0.09552
2.281;-0.0976562
2.282;-0.0997925
2.283;-0.101929
2.284;-0.10437
2.285;-0.106812
2.286;-0.108948
2.287;-0.110779
2.288;-0.11261
2.289;-0.114441
2.29;-0.115662
2.291;-0.116882
2.292;-0.117798
2.293;-0.118713
2.294;-0.119629
2.295;-0.120239
2.296;-0.120544
2.297;-0.120239
2.298;-0.119934
2.299;-0.119324
2.3;-0.118408
2.301;-0.117798
2.302;-0.116882
2.303;-0.115967
2.304;-0.115051
2.305;-0.113831
2.306;-0.11261
2.307;-0.111084
2.308;-0.109253
2.309;-0.107422
2.31;-0.10498
2.311;-0.102539
2.312;-0.100098
2.313;-0.0973511
2.314;-0.0949097
2.315;-0.0921631
2.316;-0.0891113
2.317;-0.0863647
2.318;-0.083313
2.319;-0.0805664
2.32;-0.0784302
2.321;-0.0762939
2.322;-0.0744629
2.323;-0.072937
2.324;-0.0714111
2.325;-0.0698853
2.326;-0.0686646
2.327;-0.0674438
2.328;-0.0665283
2.329;-0.0656128
2.33;-0.0646973
2.331;-0.0640869
2.332;-0.0631714
2.333;-0.062561
2.334;-0.0616455
2.335;-0.0610352
2.336;-0.0601196
2.337;-0.0592041
2.338;-0.0582886
2.339;-0.057373
2.34;-0.0564575
2.341;-0.055542
2.342;-0.0546265
2.343;-0.0534058
2.344;-0.0518799
2.345;-0.050354
2.346;-0.0491333
2.347;-0.0482178
2.348;-0.0469971
2.349;-0.0460815
2.35;-0.045166
2.351;-0.0439453
2.352;-0.0427246
2.353;-0.0411987
2.354;-0.039978
2.355;-0.0387573
2.356;-0.0372314
2.357;-0.0354004
2.358;-0.0335693
2.359;-0.0314331
2.36;-0.0292969
2.361;-0.0274658
2.362;-0.0256348
2.363;-0.0238037
2.364;-0.0222778
2.365;-0.020752
2.366;-0.0195312
2.367;-0.0183105
2.368;-0.0170898
2.369;-0.0158691
2.37;-0.0149536
2.371;-0.0140381
2.372;-0.0134277
2.373;-0.0131226
2.374;-0.0128174
2.375;-0.0125122
2.376;-0.0119019
2.377;-0.0115967
2.378;-0.0109863
2.379;-0.0106812
2.38;-0.0106812
2.381;-0.010376
2.382;-0.0100708
2.383;-0.00946045
2.384;-0.00854492
2.385;-0.00671387
2.386;-0.00488281
2.387;-0.00244141
2.388;0
2.389;0.00213623
2.39;0.00427246
2.391;0.00640869
2.392;0.00854492
2.393;0.0106812
2.394;0.0128174
2.395;0.0152588
2.396;0.0177002
2.397;0.0201416
2.398;0.0222778
2.399;0.0244141
2.4;0.0265503
2.401;0.0280762
2.402;0.0292969
2.403;0.0305176
2.404;0.0320435
2.405;0.0335693
2.406;0.0350952
2.407;0.0369263
2.408;0.0387573
2.409;0.0402832
2.41;0.0415039
2.411;0.0427246
2.412;0.0436401
2.413;0.0445557
2.414;0.045166
2.415;0.0457764
2.416;0.0460815
2.417;0.0469971
2.418;0.0479126
2.419;0.0488281
2.42;0.0500488
2.421;0.0512695
2.422;0.0527954
2.423;0.0543213
2.424;0.0567627
2.425;0.0592041
2.426;0.0616455
2.427;0.0643921
2.428;0.0671387
2.429;0.0698853
2.43;0.072937
2.431;0.0759888
2.432;0.0793457
2.433;0.0827026
2.434;0.0860596
2.435;0.0891113
2.436;0.0924683
2.437;0.09552
2.438;0.0982666
2.439;0.100708
2.44;0.102844
2.441;0.10437
2.442;0.105591
2.443;0.106506
2.444;0.107422
2.445;0.108032
2.446;0.108643
2.447;0.108948
2.448;0.109253
2.449;0.108948
2.45;0.108948
2.451;0.108337
2.452;0.107727
2.453;0.107117
2.454;0.106201
2.455;0.105286
2.456;0.104675
2.457;0.10437
2.458;0.104065
2.459;0.10437
2.46;0.104675
2.461;0.10498
2.462;0.10498
2.463;0.105286
2.464;0.105286
2.465;0.10498
2.466;0.104065
2.467;0.102844
2.468;0.101624
2.469;0.0997925
2.47;0.0976562
2.471;0.09552
2.472;0.0933838
2.473;0.0912476
2.474;0.0891113
2.475;0.0875854
2.476;0.0857544
2.477;0.0845337
2.478;0.0830078
2.479;0.0814819
2.48;0.0793457
2.481;0.0772095
2.482;0.0747681
2.483;0.072937
2.484;0.071106
2.485;0.0695801
2.486;0.0683594
2.487;0.0674438
2.488;0.0668335
2.489;0.0665283
2.49;0.0662231
2.491;0.0662231
2.492;0.065918
2.493;0.0656128
2.494;0.0650024
2.495;0.0640869
2.496;0.0631714
2.497;0.0622559
2.498;0.0613403
2.499;0.0604248
2.5;0.0598145
2.501;0.0588989
2.502;0.0579834
2.503;0.057373
2.504;0.0570679
2.505;0.0570679
2.506;0.0570679
2.507;0.057373
2.508;0.0576782
2.509;0.0576782
2.51;0.057373
2.511;0.0567627
2.512;0.0561523
2.513;0.0552368
2.514;0.0543213
2.515;0.0537109
2.516;0.0531006
2.517;0.0524902
2.518;0.0524902
2.519;0.0524902
2.52;0.0521851
2.521;0.0521851
2.522;0.0515747
2.523;0.0512695
2.524;0.0506592
2.525;0.0500488
2.526;0.0491333
2.527;0.0479126
2.528;0.0469971
2.529;0.0457764
2.53;0.0448608
2.531;0.0442505
2.532;0.0436401
2.533;0.043335
2.534;0.0430298
2.535;0.043335
2.536;0.0439453
2.537;0.045166
2.538;0.0466919
2.539;0.0488281
2.54;0.0509644
2.541;0.0531006
2.542;0.0549316
2.543;0.0570679
2.544;0.0592041
2.545;0.0616455
2.546;0.0637817
2.547;0.0662231
2.548;0.0686646
2.549;0.071106
2.55;0.0735474
2.551;0.0759888
2.552;0.078125
2.553;0.0799561
2.554;0.0814819
2.555;0.0823975
2.556;0.0830078
2.557;0.0836182
2.558;0.0836182
2.559;0.0839233
2.56;0.0839233
2.561;0.0839233
2.562;0.0842285
2.563;0.0848389
2.564;0.0854492
2.565;0.0863647
2.566;0.0869751
2.567;0.0875854
2.568;0.0881958
2.569;0.0888062
2.57;0.0894165
2.571;0.090332
2.572;0.0912476
2.573;0.0924683
2.574;0.093689
2.575;0.0949097
2.576;0.0961304
2.577;0.0976562
2.578;0.098877
2.579;0.100098
2.58;0.100708
2.581;0.101013
2.582;0.100708
2.583;0.100403
2.584;0.0997925
2.585;0.0991821
2.586;0.0985718
2.587;0.0979614
2.588;0.0973511
2.589;0.0970459
2.59;0.0964355
2.591;0.0958252
2.592;0.09552
2.593;0.0952148
2.594;0.0946045
2.595;0.093689
2.596;0.0927734
2.597;0.0915527
2.598;0.0906372
2.599;0.0894165
2.6;0.0881958
2.601;0.0866699
2.602;0.0857544
2.603;0.0845337
2.604;0.0836182
2.605;0.0827026
2.606;0.0817871
2.607;0.0808716
2.608;0.0796509
2.609;0.0787354
2.61;0.078125
2.611;0.0772095
2.612;0.0765991
2.613;0.0759888
2.614;0.0753784
2.615;0.0753784
2.616;0.0753784
2.617;0.0762939
2.618;0.0775146
2.619;0.0787354
2.62;0.0796509
2.621;0.0805664
2.622;0.0814819
2.623;0.0820923
2.624;0.0823975
2.625;0.0830078
2.626;0.0836182
2.627;0.0845337
2.628;0.085144
2.629;0.0860596
2.63;0.0872803
2.631;0.088501
2.632;0.0900269
2.633;0.0915527
2.634;0.0930786
2.635;0.0946045
2.636;0.0964355
2.637;0.0985718
2.638;0.100708
2.639;0.103455
2.64;0.106201
2.641;0.109253
2.642;0.112305
2.643;0.115356
2.644;0.118713
2.645;0.12207
2.646;0.125427
2.647;0.128784
2.648;0.132141
2.649;0.135803
2.65;0.139465
2.651;0.143127
2.652;0.147095
2.653;0.151062
2.654;0.155029
2.655;0.158997
2.656;0.163269
2.657;0.167542
2.658;0.172119
2.659;0.176392
2.66;0.180359
2.661;0.184631
2.662;0.188904
2.663;0.193176
2.664;0.197754
2.665;0.202332
2.666;0.206604
2.667;0.210266
2.668;0.213928
2.669;0.217285
2.67;0.220337
2.671;0.223083
2.672;0.225525
2.673;0.227356
2.674;0.228271
2.675;0.228882
2.676;0.229187
2.677;0.228882
2.678;0.228577
2.679;0.227661
2.68;0.22644
2.681;0.224915
2.682;0.223389
2.683;0.221558
2.684;0.220032
2.685;0.217896
2.686;0.215454
2.687;0.212708
2.688;0.209351
2.689;0.205688
2.69;0.201721
2.691;0.197449
2.692;0.192566
2.693;0.187073
2.694;0.181274
2.695;0.174866
2.696;0.168152
2.697;0.160828
2.698;0.152893
2.699;0.144653
2.7;0.135803
2.701;0.126343
2.702;0.116882
2.703;0.107117
2.704;0.0973511
2.705;0.0878906
2.706;0.0787354
2.707;0.0695801
2.708;0.0610352
2.709;0.0527954
2.71;0.045166
2.711;0.0378418
2.712;0.0308228
2.713;0.0241089
2.714;0.0177002
2.715;0.0115967
2.716;0.00610352
2.717;0.00152588
2.718;-0.00244141
2.719;-0.00518799
2.72;-0.00762939
2.721;-0.0100708
2.722;-0.0119019
2.723;-0.0137329
2.724;-0.0152588
2.725;-0.0164795
2.726;-0.017395
2.727;-0.0183105
2.728;-0.0192261
2.729;-0.0198364
2.73;-0.0201416
2.731;-0.020752
2.732;-0.0210571
2.733;-0.0216675
2.734;-0.0222778
2.735;-0.022583
2.736;-0.0228882
2.737;-0.022583
2.738;-0.0219727
2.739;-0.0210571
2.74;-0.0201416
2.741;-0.0195312
2.742;-0.0186157
2.743;-0.0180054
2.744;-0.0177002
2.745;-0.0170898
2.746;-0.0167847
2.747;-0.0164795
2.748;-0.0170898
2.749;-0.0186157
2.75;-0.020752
2.751;-0.0244141
2.752;-0.0292969
2.753;-0.0357056
2.754;-0.043335
2.755;-0.0518799
2.756;-0.0613403
2.757;-0.0708008
2.758;-0.0802612
2.759;-0.0894165
2.76;-0.0979614
2.761;-0.105591
2.762;-0.112305
2.763;-0.116882
2.764;-0.119324
2.765;-0.118713
2.766;-0.114441
2.767;-0.106201
2.768;-0.0930786
2.769;-0.0744629
2.77;-0.0500488
2.771;-0.0189209
2.772;0.0186157
2.773;0.0631714
2.774;0.114136
2.775;0.171204
2.776;0.234375
2.777;0.302429
2.778;0.375061
2.779;0.45166
2.78;0.531311
2.781;0.614319
2.782;0.699768
2.783;0.787354
2.784;0.875854
2.785;0.963745
2.786;1.04919
2.787;1.13098
2.788;1.20819
2.789;1.2796
2.79;1.34521
2.791;1.40442
2.792;1.45721
2.793;1.50269
2.794;1.54083
2.795;1.57013
2.796;1.59027
2.797;1.60065
2.798;1.60095
2.799;1.59088
2.8;1.57013
2.801;1.53809
2.802;1.49536
2.803;1.44196
2.804;1.37909
2.805;1.30768
2.806;1.22925
2.807;1.14502
2.808;1.05713
2.809;0.966492
2.81;0.874939
2.811;0.783386
2.812;0.692444
2.813;0.603027
2.814;0.515747
2.815;0.431824
2.816;0.352173
2.817;0.277405
2.818;0.20874
2.819;0.146179
2.82;0.0906372
2.821;0.0418091
2.822;0.000305176
2.823;-0.0341797
2.824;-0.0622559
2.825;-0.0842285
2.826;-0.100403
2.827;-0.112
2.828;-0.119629
2.829;-0.124512
2.83;-0.126953
2.831;-0.127869
2.832;-0.127869
2.833;-0.127258
2.834;-0.126648
2.835;-0.126343
2.836;-0.126648
2.837;-0.127563
2.838;-0.128784
2.839;-0.131226
2.84;-0.133972
2.841;-0.137024
2.842;-0.140381
2.843;-0.143433
2.844;-0.146484
2.845;-0.149231
2.846;-0.151978
2.847;-0.154114
2.848;-0.15625
2.849;-0.157776
2.85;-0.158691
2.851;-0.159302
2.852;-0.159912
2.853;-0.160217
2.854;-0.160522
2.855;-0.161133
2.856;-0.161438
2.857;-0.161743
2.858;-0.161743
2.859;-0.161743
2.86;-0.161438
2.861;-0.160828
2.862;-0.160217
2.863;-0.159912
2.864;-0.159607
2.865;-0.159302
2.866;-0.159302
2.867;-0.159302
2.868;-0.159302
2.869;-0.158997
2.87;-0.158997
2.871;-0.158691
2.872;-0.158386
2.873;-0.158386
2.874;-0.158081
2.875;-0.158081
2.876;-0.157471
2.877;-0.15686
2.878;-0.15564
2.879;-0.154114
2.88;-0.151672
2.881;-0.149231
2.882;-0.145874
2.883;-0.142212
2.884;-0.13855
2.885;-0.134583
2.886;-0.13092
2.887;-0.127258
2.888;-0.123901
2.889;-0.120544
2.89;-0.117493
2.891;-0.114441
2.892;-0.111389
2.893;-0.108643
2.894;-0.106201
2.895;-0.104065
2.896;-0.101929
2.897;-0.100098
2.898;-0.0982666
2.899;-0.0964355
2.9;-0.0949097
2.901;-0.0933838
2.902;-0.0921631
2.903;-0.0909424
2.904;-0.0897217
2.905;-0.088501
2.906;-0.0875854
2.907;-0.0863647
2.908;-0.0854492
2.909;-0.0839233
2.91;-0.0820923
2.911;-0.0799561
2.912;-0.0775146
2.913;-0.0747681
2.914;-0.0723267
2.915;-0.0695801
2.916;-0.0668335
2.917;-0.0640869
2.918;-0.0616455
2.919;-0.0588989
2.92;-0.0564575
2.921;-0.0543213
2.922;-0.0524902
2.923;-0.0512695
2.924;-0.050354
2.925;-0.0497437
2.926;-0.0491333
2.927;-0.0485229
2.928;-0.0479126
2.929;-0.0473022
2.93;-0.0466919
2.931;-0.0463867
2.932;-0.0460815
2.933;-0.0463867
2.934;-0.0466919
2.935;-0.0469971
2.936;-0.0473022
2.937;-0.0473022
2.938;-0.0466919
2.939;-0.0460815
2.94;-0.045166
2.941;-0.0442505
2.942;-0.043335
2.943;-0.0421143
2.944;-0.0405884
2.945;-0.0387573
2.946;-0.0369263
2.947;-0.0350952
2.948;-0.032959
2.949;-0.0305176
2.95;-0.0283813
2.951;-0.0262451
2.952;-0.0241089
2.953;-0.0222778
2.954;-0.020752
2.955;-0.0195312
2.956;-0.0180054
2.957;-0.0164795
2.958;-0.0149536
2.959;-0.0134277
2.96;-0.012207
2.961;-0.0109863
2.962;-0.00976562
2.963;-0.00854492
2.964;-0.00701904
2.965;-0.00549316
2.966;-0.00335693
2.967;-0.000915527
2.968;0.00152588
2.969;0.00427246
2.97;0.00671387
2.971;0.00946045
2.972;0.0125122
2.973;0.0152588
2.974;0.0183105
2.975;0.0213623
2.976;0.0250244
2.977;0.0289917
2.978;0.032959
2.979;0.0369263
2.98;0.0405884
2.981;0.0439453
2.982;0.0469971
2.983;0.0497437
2.984;0.0521851
2.985;0.0543213
2.986;0.0558472
2.987;0.0570679
2.988;0.0576782
2.989;0.0579834
2.99;0.0582886
2.991;0.0585938
2.992;0.0585938
2.993;0.0585938
2.994;0.0579834
2.995;0.0576782
2.996;0.0570679
2.997;0.0567627
2.998;0.0564575
2.999;0.0561523
3;0.0558472
3.001;0.0558472
3.002;0.055542
3.003;0.0558472
3.004;0.0561523
3.005;0.0567627
3.006;0.0576782
3.007;0.0592041
3.008;0.0610352
3.009;0.0631714
3.01;0.0656128
3.011;0.0683594
3.012;0.0708008
3.013;0.072937
3.014;0.0753784
3.015;0.0775146
3.016;0.0802612
3.017;0.0827026
3.018;0.0854492
3.019;0.0881958
3.02;0.0906372
3.021;0.0927734
3.022;0.0949097
3.023;0.0967407
3.024;0.098877
3.025;0.100708
3.026;0.102539
3.027;0.10376
3.028;0.104675
3.029;0.105286
3.03;0.105591
3.031;0.105896
3.032;0.106201
3.033;0.105896
3.034;0.105286
3.035;0.104065
3.036;0.102234
3.037;0.100098
3.038;0.0976562
3.039;0.0952148
3.04;0.0924683
3.041;0.0897217
3.042;0.0872803
3.043;0.0848389
3.044;0.0823975
3.045;0.0799561
3.046;0.0772095
3.047;0.0744629
3.048;0.0717163
3.049;0.0686646
3.05;0.0662231
3.051;0.0640869
3.052;0.062561
3.053;0.0613403
3.054;0.06073
3.055;0.06073
3.056;0.0613403
3.057;0.0619507
3.058;0.0631714
3.059;0.0640869
3.06;0.0653076
3.061;0.0662231
3.062;0.0668335
3.063;0.067749
3.064;0.0683594
3.065;0.0692749
3.066;0.0698853
3.067;0.0704956
3.068;0.0704956
3.069;0.0701904
3.07;0.0695801
3.071;0.0686646
3.072;0.0674438
3.073;0.065918
3.074;0.0637817
3.075;0.0619507
3.076;0.0598145
3.077;0.0579834
3.078;0.0558472
3.079;0.0537109
3.08;0.0515747
3.081;0.0491333
3.082;0.0469971
3.083;0.0454712
3.084;0.0442505
3.085;0.0436401
3.086;0.0436401
3.087;0.0439453
3.088;0.0442505
3.089;0.0448608
3.09;0.0454712
3.091;0.0463867
3.092;0.0473022
3.093;0.0482178
3.094;0.0488281
3.095;0.0494385
3.096;0.0500488
3.097;0.0506592
3.098;0.0515747
3.099;0.0521851
3.1;0.0527954
3.101;0.0527954
3.102;0.0527954
3.103;0.0531006
3.104;0.0534058
3.105;0.0540161
3.106;0.0552368
3.107;0.0564575
3.108;0.0576782
3.109;0.0588989
3.11;0.0604248
3.111;0.0622559
3.112;0.0640869
3.113;0.065918
3.114;0.0683594
3.115;0.071106
3.116;0.0741577
3.117;0.0775146
3.118;0.0808716
3.119;0.0845337
3.12;0.0878906
3.121;0.0909424
3.122;0.0939941
3.123;0.0970459
3.124;0.100098
3.125;0.102539
3.126;0.10498
3.127;0.106812
3.128;0.108337
3.129;0.109253
3.13;0.110168
3.131;0.110474
3.132;0.110779
3.133;0.110779
3.134;0.110474
3.135;0.109863
3.136;0.109253
3.137;0.108948
3.138;0.108337
3.139;0.108032
3.14;0.107727
3.141;0.107117
3.142;0.106201
3.143;0.105591
3.144;0.10498
3.145;0.104675
3.146;0.104675
3.147;0.10498
3.148;0.105591
3.149;0.106506
3.15;0.107422
3.151;0.108337
3.152;0.109253
3.153;0.110168
3.154;0.110779
3.155;0.111389
3.156;0.112
3.157;0.112305
3.158;0.11261
3.159;0.11261
3.16;0.112305
3.161;0.111389
3.162;0.110474
3.163;0.109558
3.164;0.108643
3.165;0.107422
3.166;0.106201
3.167;0.104675
3.168;0.103149
3.169;0.101624
3.17;0.100098
3.171;0.0985718
3.172;0.0967407
3.173;0.0952148
3.174;0.0939941
3.175;0.0930786
3.176;0.0927734
3.177;0.0924683
3.178;0.0924683
3.179;0.0927734
3.18;0.0927734
3.181;0.0930786
3.182;0.0930786
3.183;0.093689
3.184;0.0942993
3.185;0.09552
3.186;0.0964355
3.187;0.0976562
3.188;0.098877
3.189;0.100098
3.19;0.101318
3.191;0.103149
3.192;0.104675
3.193;0.106812
3.194;0.108948
3.195;0.111389
3.196;0.113525
3.197;0.115662
3.198;0.117493
3.199;0.119629
3.2;0.12207
3.201;0.124512
3.202;0.127258
3.203;0.130615
3.204;0.134277
3.205;0.138245
3.206;0.142517
3.207;0.14679
3.208;0.151367
3.209;0.15625
3.21;0.161743
3.211;0.167236
3.212;0.17334
3.213;0.179749
3.214;0.186157
3.215;0.192871
3.216;0.19989
3.217;0.206909
3.218;0.213623
3.219;0.220337
3.22;0.22644
3.221;0.232544
3.222;0.238037
3.223;0.243225
3.224;0.247803
3.225;0.25177
3.226;0.255127
3.227;0.257874
3.228;0.259705
3.229;0.260925
3.23;0.26123
3.231;0.260925
3.232;0.260315
3.233;0.258789
3.234;0.256653
3.235;0.254211
3.236;0.250854
3.237;0.247192
3.238;0.243225
3.239;0.238647
3.24;0.233459
3.241;0.227966
3.242;0.222473
3.243;0.216675
3.244;0.211487
3.245;0.206299
3.246;0.201111
3.247;0.195923
3.248;0.19043
3.249;0.184021
3.25;0.177612
3.251;0.170898
3.252;0.163574
3.253;0.155945
3.254;0.14801
3.255;0.140076
3.256;0.131531
3.257;0.123291
3.258;0.115051
3.259;0.106201
3.26;0.0976562
3.261;0.0888062
3.262;0.0802612
3.263;0.0723267
3.264;0.0643921
3.265;0.0570679
3.266;0.0497437
3.267;0.0427246
3.268;0.0360107
3.269;0.0296021
3.27;0.0238037
3.271;0.0186157
3.272;0.0137329
3.273;0.00976562
3.274;0.00640869
3.275;0.00396729
3.276;0.00213623
3.277;0.00152588
3.278;0.0012207
3.279;0.00152588
3.28;0.00183105
3.281;0.00213623
3.282;0.00244141
3.283;0.00274658
3.284;0.00335693
3.285;0.00396729
3.286;0.00427246
3.287;0.00457764
3.288;0.00457764
3.289;0.00427246
3.29;0.00366211
3.291;0.00305176
3.292;0.00213623
3.293;0.000610352
3.294;-0.0012207
3.295;-0.00366211
3.296;-0.00610352
3.297;-0.00854492
3.298;-0.0109863
3.299;-0.0134277
3.3;-0.015564
3.301;-0.0177002
3.302;-0.0201416
3.303;-0.022583
3.304;-0.0256348
3.305;-0.0296021
3.306;-0.0341797
3.307;-0.039978
3.308;-0.0463867
3.309;-0.0540161
3.31;-0.0622559
3.311;-0.0708008
3.312;-0.0799561
3.313;-0.0891113
3.314;-0.0982666
3.315;-0.107117
3.316;-0.115051
3.317;-0.121765
3.318;-0.126648
3.319;-0.1297
3.32;-0.13031
3.321;-0.128479
3.322;-0.122986
3.323;-0.113525
3.324;-0.0994873
3.325;-0.0802612
3.326;-0.055542
3.327;-0.0247192
3.328;0.012207
3.329;0.055542
3.33;0.10498
3.331;0.160217
3.332;0.220947
3.333;0.28656
3.334;0.35614
3.335;0.429382
3.336;0.506287
3.337;0.586548
3.338;0.66925
3.339;0.754089
3.34;0.839539
3.341;0.924683
3.342;1.00769
3.343;1.08765
3.344;1.16364
3.345;1.23444
3.346;1.29974
3.347;1.35986
3.348;1.41357
3.349;1.46118
3.35;1.50146
3.351;1.53381
3.352;1.55731
3.353;1.57074
3.354;1.5741
3.355;1.56708
3.356;1.54968
3.357;1.52161
3.358;1.48254
3.359;1.43311
3.36;1.3736
3.361;1.30524
3.362;1.22925
3.363;1.14685
3.364;1.05988
3.365;0.969543
3.366;0.877075
3.367;0.783691
3.368;0.690613
3.369;0.598755
3.37;0.509033
3.371;0.422668
3.372;0.340271
3.373;0.263367
3.374;0.191956
3.375;0.127258
3.376;0.0692749
3.377;0.0183105
3.378;-0.0256348
3.379;-0.062561
3.38;-0.0930786
3.381;-0.117493
3.382;-0.135803
3.383;-0.148926
3.384;-0.158081
3.385;-0.163574
3.386;-0.166626
3.387;-0.167542
3.388;-0.167542
3.389;-0.166626
3.39;-0.165405
3.391;-0.163879
3.392;-0.162659
3.393;-0.161743
3.394;-0.161743
3.395;-0.162048
3.396;-0.162659
3.397;-0.163574
3.398;-0.16449
3.399;-0.16571
3.4;-0.166321
3.401;-0.167236
3.402;-0.168152
3.403;-0.168762
3.404;-0.169067
3.405;-0.169678
3.406;-0.169983
3.407;-0.170593
3.408;-0.170898
3.409;-0.171204
3.41;-0.171814
3.411;-0.172729
3.412;-0.173645
3.413;-0.174866
3.414;-0.176086
3.415;-0.177002
3.416;-0.177917
3.417;-0.177917
3.418;-0.177612
3.419;-0.176392
3.42;-0.174561
3.421;-0.172729
3.422;-0.170288
3.423;-0.167847
3.424;-0.164795
3.425;-0.161438
3.426;-0.158081
3.427;-0.154724
3.428;-0.151367
3.429;-0.14801
3.43;-0.144348
3.431;-0.140686
3.432;-0.137329
3.433;-0.133972
3.434;-0.131226
3.435;-0.129089
3.436;-0.127563
3.437;-0.126038
3.438;-0.125122
3.439;-0.124512
3.44;-0.124207
3.441;-0.124207
3.442;-0.124512
3.443;-0.124817
3.444;-0.125122
3.445;-0.125427
3.446;-0.126038
3.447;-0.126648
3.448;-0.127258
3.449;-0.127869
3.45;-0.128479
3.451;-0.129089
3.452;-0.129395
3.453;-0.1297
3.454;-0.1297
3.455;-0.129395
3.456;-0.128784
3.457;-0.128174
3.458;-0.127563
3.459;-0.126648
3.46;-0.126038
3.461;-0.125427
3.462;-0.125122
3.463;-0.124817
3.464;-0.124512
3.465;-0.124207
3.466;-0.123901
3.467;-0.123596
3.468;-0.123291
3.469;-0.122986
3.47;-0.122375
3.471;-0.12146
3.472;-0.120544
3.473;-0.119629
3.474;-0.118713
3.475;-0.117493
3.476;-0.115967
3.477;-0.114136
3.478;-0.112
3.479;-0.109863
3.48;-0.107727
3.481;-0.105591
3.482;-0.103455
3.483;-0.101318
3.484;-0.0994873
3.485;-0.0976562
3.486;-0.0961304
3.487;-0.0949097
3.488;-0.093689
3.489;-0.0921631
3.49;-0.0906372
3.491;-0.0891113
3.492;-0.0875854
3.493;-0.0863647
3.494;-0.0854492
3.495;-0.0842285
3.496;-0.0830078
3.497;-0.0817871
3.498;-0.0802612
3.499;-0.0790405
3.5;-0.078125
3.501;-0.0772095
3.502;-0.0762939
3.503;-0.0750732
3.504;-0.0735474
3.505;-0.0720215
3.506;-0.0701904
3.507;-0.0683594
3.508;-0.0668335
3.509;-0.0650024
3.51;-0.0631714
3.511;-0.0613403
3.512;-0.0588989
3.513;-0.0567627
3.514;-0.0546265
3.515;-0.0524902
3.516;-0.050354
3.517;-0.0485229
3.518;-0.0466919
3.519;-0.045166
3.52;-0.0439453
3.521;-0.0427246
3.522;-0.0415039
3.523;-0.039978
3.524;-0.038147
3.525;-0.0360107
3.526;-0.0335693
3.527;-0.0308228
3.528;-0.027771
3.529;-0.0247192
3.53;-0.0216675
3.531;-0.0189209
3.532;-0.0161743
3.533;-0.0131226
3.534;-0.010376
3.535;-0.00701904
3.536;-0.00335693
3.537;0.000610352
3.538;0.00488281
3.539;0.00915527
3.54;0.0134277
3.541;0.0170898
3.542;0.0204468
3.543;0.0231934
3.544;0.0259399
3.545;0.0280762
3.546;0.0299072
3.547;0.0314331
3.548;0.0323486
3.549;0.032959
3.55;0.0332642
3.551;0.032959
3.552;0.0326538
3.553;0.0317383
3.554;0.0308228
3.555;0.0296021
3.556;0.0286865
3.557;0.027771
3.558;0.0271606
3.559;0.0262451
3.56;0.0256348
3.561;0.0253296
3.562;0.0250244
3.563;0.0253296
3.564;0.0259399
3.565;0.0271606
3.566;0.0286865
3.567;0.0305176
3.568;0.0326538
3.569;0.03479
3.57;0.0369263
3.571;0.0390625
3.572;0.0408936
3.573;0.0427246
3.574;0.0445557
3.575;0.0457764
3.576;0.0473022
3.577;0.0482178
3.578;0.0491333
3.579;0.0494385
3.58;0.0494385
3.581;0.0491333
3.582;0.0482178
3.583;0.0473022
3.584;0.0460815
3.585;0.0445557
3.586;0.0430298
3.587;0.0415039
3.588;0.0396729
3.589;0.0378418
3.59;0.0360107
3.591;0.0344849
3.592;0.032959
3.593;0.0317383
3.594;0.0302124
3.595;0.0289917
3.596;0.0280762
3.597;0.0271606
3.598;0.0268555
3.599;0.0265503
3.6;0.0265503
3.601;0.0265503
3.602;0.0262451
3.603;0.0262451
3.604;0.0262451
3.605;0.0262451
3.606;0.0262451
3.607;0.0259399
3.608;0.0256348
3.609;0.0250244
3.61;0.0244141
3.611;0.0238037
3.612;0.0228882
3.613;0.0222778
3.614;0.0213623
3.615;0.0201416
3.616;0.0189209
3.617;0.0177002
3.618;0.0167847
3.619;0.015564
3.62;0.0143433
3.621;0.0131226
3.622;0.0125122
3.623;0.0119019
3.624;0.0115967
3.625;0.0115967
3.626;0.0119019
3.627;0.012207
3.628;0.0125122
3.629;0.0128174
3.63;0.0134277
3.631;0.0137329
3.632;0.0143433
3.633;0.0146484
3.634;0.0149536
3.635;0.0152588
3.636;0.0152588
3.637;0.0149536
3.638;0.0149536
3.639;0.0146484
3.64;0.0143433
3.641;0.0140381
3.642;0.0134277
3.643;0.0128174
3.644;0.012207
3.645;0.0115967
3.646;0.0115967
3.647;0.0115967
3.648;0.0115967
3.649;0.0119019
3.65;0.012207
3.651;0.0125122
3.652;0.0131226
3.653;0.0137329
3.654;0.0146484
3.655;0.015564
3.656;0.0167847
3.657;0.0180054
3.658;0.0195312
3.659;0.020752
3.66;0.0222778
3.661;0.0238037
3.662;0.0253296
3.663;0.0268555
3.664;0.0283813
3.665;0.0296021
3.666;0.0308228
3.667;0.0314331
3.668;0.0320435
3.669;0.0323486
3.67;0.032959
3.671;0.0335693
3.672;0.0338745
3.673;0.0344849
3.674;0.0350952
3.675;0.0354004
3.676;0.0360107
3.677;0.0366211
3.678;0.0375366
3.679;0.038147
3.68;0.0387573
3.681;0.0390625
3.682;0.0390625
3.683;0.0393677
3.684;0.0393677
3.685;0.0396729
3.686;0.039978
3.687;0.039978
3.688;0.0396729
3.689;0.0396729
3.69;0.0390625
3.691;0.0384521
3.692;0.0378418
3.693;0.0372314
3.694;0.0369263
3.695;0.0366211
3.696;0.0366211
3.697;0.0372314
3.698;0.0378418
3.699;0.0387573
3.7;0.0393677
3.701;0.0402832
3.702;0.0408936
3.703;0.0418091
3.704;0.0427246
3.705;0.0439453
3.706;0.0454712
3.707;0.0466919
3.708;0.0479126
3.709;0.0488281
3.71;0.0494385
3.711;0.0500488
3.712;0.0509644
3.713;0.0515747
3.714;0.0524902
3.715;0.0534058
3.716;0.0540161
3.717;0.0549316
3.718;0.0552368
3.719;0.0552368
3.72;0.0546265
3.721;0.0540161
3.722;0.0534058
3.723;0.0524902
3.724;0.0518799
3.725;0.0512695
3.726;0.0506592
3.727;0.0497437
3.728;0.0488281
3.729;0.0476074
3.73;0.0463867
3.731;0.0448608
3.732;0.043335
3.733;0.0411987
3.734;0.0390625
3.735;0.0369263
3.736;0.0350952
3.737;0.0335693
3.738;0.0323486
3.739;0.0311279
3.74;0.0299072
3.741;0.0286865
3.742;0.0274658
3.743;0.0265503
3.744;0.0259399
3.745;0.0256348
3.746;0.0253296
3.747;0.0256348
3.748;0.0262451
3.749;0.0271606
3.75;0.0283813
3.751;0.0299072
3.752;0.0311279
3.753;0.0326538
3.754;0.0338745
3.755;0.0354004
3.756;0.0366211
3.757;0.0384521
3.758;0.0402832
3.759;0.0418091
3.76;0.043335
3.761;0.0445557
3.762;0.0460815
3.763;0.0479126
3.764;0.0500488
3.765;0.0527954
3.766;0.0558472
3.767;0.0595093
3.768;0.0637817
3.769;0.0683594
3.77;0.0732422
3.771;0.0787354
3.772;0.0848389
3.773;0.0906372
3.774;0.0970459
3.775;0.103149
3.776;0.109558
3.777;0.115967
3.778;0.122375
3.779;0.128784
3.78;0.135193
3.781;0.140991
3.782;0.146484
3.783;0.151672
3.784;0.15625
3.785;0.160522
3.786;0.163879
3.787;0.166626
3.788;0.168762
3.789;0.170288
3.79;0.170898
3.791;0.170593
3.792;0.169983
3.793;0.168457
3.794;0.166321
3.795;0.163574
3.796;0.161133
3.797;0.158386
3.798;0.15564
3.799;0.152893
3.8;0.150146
3.801;0.147095
3.802;0.143738
3.803;0.140381
3.804;0.137024
3.805;0.133667
3.806;0.1297
3.807;0.125732
3.808;0.12146
3.809;0.117188
3.81;0.112915
3.811;0.108032
3.812;0.103149
3.813;0.0976562
3.814;0.0918579
3.815;0.0854492
3.816;0.0790405
3.817;0.0723267
3.818;0.0656128
3.819;0.0585938
3.82;0.0509644
3.821;0.043335
3.822;0.0354004
3.823;0.0274658
3.824;0.0198364
3.825;0.0125122
3.826;0.00518799
3.827;-0.00183105
3.828;-0.00854492
3.829;-0.0149536
3.83;-0.0210571
3.831;-0.0271606
3.832;-0.032959
3.833;-0.038147
3.834;-0.0430298
3.835;-0.0473022
3.836;-0.0509644
3.837;-0.0540161
3.838;-0.0567627
3.839;-0.0592041
3.84;-0.0613403
3.841;-0.0634766
3.842;-0.0656128
3.843;-0.067749
3.844;-0.0692749
3.845;-0.0704956
3.846;-0.071106
3.847;-0.0714111
3.848;-0.071106
3.849;-0.0708008
3.85;-0.0698853
3.851;-0.0686646
3.852;-0.067749
3.853;-0.0665283
3.854;-0.0653076
3.855;-0.0643921
3.856;-0.0631714
3.857;-0.0622559
3.858;-0.0613403
3.859;-0.06073
3.86;-0.0604248
3.861;-0.0604248
3.862;-0.06073
3.863;-0.0610352
3.864;-0.0619507
3.865;-0.0637817
3.866;-0.0662231
3.867;-0.0698853
3.868;-0.0750732
3.869;-0.0814819
3.87;-0.0891113
3.871;-0.0976562
3.872;-0.107117
3.873;-0.116882
3.874;-0.126953
3.875;-0.137024
3.876;-0.146484
3.877;-0.155334
3.878;-0.162659
3.879;-0.168457
3.88;-0.172119
3.881;-0.173645
3.882;-0.172424
3.883;-0.167847
3.884;-0.159912
3.885;-0.147705
3.886;-0.13092
3.887;-0.109253
3.888;-0.0817871
3.889;-0.0482178
3.89;-0.0088501
3.891;0.0372314
3.892;0.0888062
3.893;0.145874
3.894;0.207825
3.895;0.273743
3.896;0.343323
3.897;0.41687
3.898;0.493469
3.899;0.57312
3.9;0.655212
3.901;0.739136
3.902;0.82428
3.903;0.909729
3.904;0.993652
3.905;1.07513
3.906;1.15234
3.907;1.22437
3.908;1.2912
3.909;1.35162
3.91;1.40594
3.911;1.45386
3.912;1.49445
3.913;1.52679
3.914;1.55029
3.915;1.56433
3.916;1.56799
3.917;1.56158
3.918;1.54449
3.919;1.51672
3.92;1.47827
3.921;1.42853
3.922;1.36902
3.923;1.30005
3.924;1.22345
3.925;1.13983
3.926;1.05133
3.927;0.959473
3.928;0.865479
3.929;0.770874
3.93;0.676575
3.931;0.583496
3.932;0.492554
3.933;0.404968
3.934;0.32196
3.935;0.243835
3.936;0.171814
3.937;0.106201
3.938;0.0476074
3.939;-0.00427246
3.94;-0.0488281
3.941;-0.0866699
3.942;-0.117798
3.943;-0.142212
3.944;-0.160828
3.945;-0.173645
3.946;-0.18219
3.947;-0.186768
3.948;-0.188599
3.949;-0.188293
3.95;-0.186462
3.951;-0.183716
3.952;-0.180664
3.953;-0.177917
3.954;-0.175171
3.955;-0.173035
3.956;-0.171204
3.957;-0.169983
3.958;-0.169373
3.959;-0.169373
3.96;-0.169678
3.961;-0.170288
3.962;-0.170898
3.963;-0.171814
3.964;-0.172424
3.965;-0.17334
3.966;-0.17395
3.967;-0.174866
3.968;-0.175781
3.969;-0.176697
3.97;-0.177612
3.971;-0.178528
3.972;-0.179138
3.973;-0.180054
3.974;-0.180969
3.975;-0.181885
3.976;-0.182495
3.977;-0.183105
3.978;-0.183105
3.979;-0.1828
3.98;-0.18219
3.981;-0.180969
3.982;-0.179443
3.983;-0.177917
3.984;-0.176697
3.985;-0.175171
3.986;-0.173645
3.987;-0.171814
3.988;-0.169373
3.989;-0.166931
3.99;-0.163879
3.991;-0.160828
3.992;-0.157776
3.993;-0.154724
3.994;-0.151672
3.995;-0.148926
3.996;-0.146179
3.997;-0.143738
3.998;-0.140991
3.999;-0.13855
4;-0.136108
4.001;-0.133667
4.002;-0.131531
4.003;-0.129089
4.004;-0.126953
4.005;-0.124817
4.006;-0.123291
4.007;-0.12207
4.008;-0.12146
4.009;-0.121765
4.01;-0.12207
4.011;-0.122681
4.012;-0.123596
4.013;-0.124512
4.014;-0.125732
4.015;-0.126343
4.016;-0.126953
4.017;-0.127258
4.018;-0.127563
4.019;-0.127563
4.02;-0.127869
4.021;-0.128479
4.022;-0.128784
4.023;-0.129089
4.024;-0.129089
4.025;-0.128784
4.026;-0.127869
4.027;-0.126648
4.028;-0.124817
4.029;-0.122681
4.03;-0.120239
4.031;-0.117493
4.032;-0.114746
4.033;-0.111694
4.034;-0.108948
4.035;-0.105896
4.036;-0.102844
4.037;-0.0997925
4.038;-0.0967407
4.039;-0.093689
4.04;-0.0915527
4.041;-0.0897217
4.042;-0.0881958
4.043;-0.0866699
4.044;-0.085144
4.045;-0.083313
4.046;-0.0814819
4.047;-0.0796509
4.048;-0.078125
4.049;-0.0765991
4.05;-0.0750732
4.051;-0.0738525
4.052;-0.0726318
4.053;-0.071106
4.054;-0.0701904
4.055;-0.0689697
4.056;-0.067749
4.057;-0.0665283
4.058;-0.0653076
4.059;-0.0637817
4.06;-0.062561
4.061;-0.0613403
4.062;-0.0601196
4.063;-0.0585938
4.064;-0.057373
4.065;-0.0561523
4.066;-0.0546265
4.067;-0.0527954
4.068;-0.0509644
4.069;-0.0485229
4.07;-0.0457764
4.071;-0.0427246
4.072;-0.0396729
4.073;-0.0366211
4.074;-0.0338745
4.075;-0.0308228
4.076;-0.027771
4.077;-0.0247192
4.078;-0.0216675
4.079;-0.0183105
4.08;-0.0152588
4.081;-0.012207
4.082;-0.00915527
4.083;-0.00579834
4.084;-0.00244141
4.085;0.000915527
4.086;0.00366211
4.087;0.00579834
4.088;0.00762939
4.089;0.00915527
4.09;0.010376
4.091;0.0109863
4.092;0.0115967
4.093;0.0119019
4.094;0.0119019
4.095;0.0119019
4.096;0.012207
4.097;0.0128174
4.098;0.0134277
4.099;0.0143433
4.1;0.0149536
4.101;0.015564
4.102;0.0164795
4.103;0.017395
4.104;0.0183105
4.105;0.0192261
4.106;0.0204468
4.107;0.0213623
4.108;0.0228882
4.109;0.0244141
4.11;0.0259399
4.111;0.0280762
4.112;0.0299072
4.113;0.0320435
4.114;0.0338745
4.115;0.0360107
4.116;0.0384521
4.117;0.0408936
4.118;0.043335
4.119;0.0454712
4.12;0.0476074
4.121;0.0494385
4.122;0.0512695
4.123;0.0524902
4.124;0.0540161
4.125;0.055542
4.126;0.0567627
4.127;0.0585938
4.128;0.0604248
4.129;0.0622559
4.13;0.0640869
4.131;0.065918
4.132;0.0674438
4.133;0.0683594
4.134;0.0689697
4.135;0.0692749
4.136;0.0695801
4.137;0.0695801
4.138;0.0698853
4.139;0.0698853
4.14;0.0698853
4.141;0.0695801
4.142;0.0695801
4.143;0.0692749
4.144;0.0689697
4.145;0.0689697
4.146;0.0689697
4.147;0.0683594
4.148;0.067749
4.149;0.0665283
4.15;0.0656128
4.151;0.0643921
4.152;0.0628662
4.153;0.0616455
4.154;0.0604248
4.155;0.0588989
4.156;0.0579834
4.157;0.0567627
4.158;0.055542
4.159;0.0543213
4.16;0.0527954
4.161;0.0509644
4.162;0.0488281
4.163;0.0469971
4.164;0.0454712
4.165;0.0439453
4.166;0.0430298
4.167;0.0418091
4.168;0.0411987
4.169;0.0405884
4.17;0.039978
4.171;0.0396729
4.172;0.0393677
4.173;0.0390625
4.174;0.0384521
4.175;0.0378418
4.176;0.0375366
4.177;0.0372314
4.178;0.0372314
4.179;0.0369263
4.18;0.0366211
4.181;0.0363159
4.182;0.0360107
4.183;0.0357056
4.184;0.0350952
4.185;0.0344849
4.186;0.0338745
4.187;0.0326538
4.188;0.0314331
4.189;0.0302124
4.19;0.0289917
4.191;0.0280762
4.192;0.0271606
4.193;0.0265503
4.194;0.0256348
4.195;0.0250244
4.196;0.0244141
4.197;0.0234985
4.198;0.0228882
4.199;0.022583
4.2;0.0222778
4.201;0.0222778
4.202;0.022583
4.203;0.0231934
4.204;0.0241089
4.205;0.0250244
4.206;0.0256348
4.207;0.0265503
4.208;0.0271606
4.209;0.027771
4.21;0.0283813
4.211;0.0289917
4.212;0.0292969
4.213;0.0299072
4.214;0.0302124
4.215;0.0305176
4.216;0.0308228
4.217;0.0311279
4.218;0.0320435
4.219;0.0326538
4.22;0.0332642
4.221;0.0335693
4.222;0.0341797
4.223;0.0344849
4.224;0.0350952
4.225;0.0354004
4.226;0.0360107
4.227;0.0366211
4.228;0.0369263
4.229;0.0369263
4.23;0.0372314
4.231;0.0372314
4.232;0.0372314
4.233;0.0369263
4.234;0.0363159
4.235;0.0363159
4.236;0.0363159
4.237;0.0366211
4.238;0.0375366
4.239;0.0384521
4.24;0.0393677
4.241;0.0405884
4.242;0.0415039
4.243;0.0427246
4.244;0.0442505
4.245;0.0460815
4.246;0.0482178
4.247;0.0506592
4.248;0.0534058
4.249;0.0564575
4.25;0.0601196
4.251;0.0640869
4.252;0.0680542
4.253;0.0717163
4.254;0.0753784
4.255;0.0787354
4.256;0.0820923
4.257;0.0848389
4.258;0.0872803
4.259;0.0888062
4.26;0.0900269
4.261;0.0900269
4.262;0.0897217
4.263;0.0888062
4.264;0.0872803
4.265;0.0857544
4.266;0.0842285
4.267;0.0827026
4.268;0.0808716
4.269;0.0787354
4.27;0.0769043
4.271;0.0750732
4.272;0.072937
4.273;0.0708008
4.274;0.0689697
4.275;0.0668335
4.276;0.0650024
4.277;0.0634766
4.278;0.0622559
4.279;0.0613403
4.28;0.0610352
4.281;0.0613403
4.282;0.0616455
4.283;0.062561
4.284;0.0631714
4.285;0.0640869
4.286;0.0646973
4.287;0.0656128
4.288;0.0662231
4.289;0.0665283
4.29;0.0671387
4.291;0.0674438
4.292;0.067749
4.293;0.0674438
4.294;0.0671387
4.295;0.0665283
4.296;0.0662231
4.297;0.065918
4.298;0.0656128
4.299;0.0650024
4.3;0.0643921
4.301;0.0634766
4.302;0.0622559
4.303;0.0613403
4.304;0.06073
4.305;0.0601196
4.306;0.0598145
4.307;0.0595093
4.308;0.0592041
4.309;0.0588989
4.31;0.0588989
4.311;0.0588989
4.312;0.0588989
4.313;0.0588989
4.314;0.0588989
4.315;0.0588989
4.316;0.0588989
4.317;0.0592041
4.318;0.0598145
4.319;0.0604248
4.32;0.0610352
4.321;0.0619507
4.322;0.062561
4.323;0.0634766
4.324;0.0643921
4.325;0.0653076
4.326;0.0662231
4.327;0.0671387
4.328;0.0680542
4.329;0.0692749
4.33;0.071106
4.331;0.072937
4.332;0.0747681
4.333;0.0769043
4.334;0.0790405
4.335;0.0811768
4.336;0.0836182
4.337;0.0863647
4.338;0.0891113
4.339;0.0921631
4.34;0.0952148
4.341;0.0985718
4.342;0.101624
4.343;0.104675
4.344;0.108032
4.345;0.111389
4.346;0.114746
4.347;0.118103
4.348;0.121765
4.349;0.126038
4.35;0.130615
4.351;0.135803
4.352;0.141296
4.353;0.147095
4.354;0.153503
4.355;0.160522
4.356;0.167542
4.357;0.174561
4.358;0.181885
4.359;0.189209
4.36;0.196228
4.361;0.202942
4.362;0.209656
4.363;0.215759
4.364;0.221252
4.365;0.22644
4.366;0.230713
4.367;0.23407
4.368;0.236206
4.369;0.237427
4.37;0.238037
4.371;0.237427
4.372;0.236206
4.373;0.23407
4.374;0.231628
4.375;0.228271
4.376;0.224609
4.377;0.220337
4.378;0.216064
4.379;0.211487
4.38;0.206299
4.381;0.201111
4.382;0.195923
4.383;0.190735
4.384;0.185547
4.385;0.180664
4.386;0.175781
4.387;0.170898
4.388;0.166321
4.389;0.161438
4.39;0.15625
4.391;0.150757
4.392;0.144958
4.393;0.138245
4.394;0.131226
4.395;0.123291
4.396;0.115356
4.397;0.106812
4.398;0.0982666
4.399;0.0897217
4.4;0.0808716
4.401;0.0717163
4.402;0.062561
4.403;0.0537109
4.404;0.045166
4.405;0.0369263
4.406;0.0292969
4.407;0.0219727
4.408;0.0152588
4.409;0.0088501
4.41;0.00305176
4.411;-0.00213623
4.412;-0.00701904
4.413;-0.0112915
4.414;-0.0149536
4.415;-0.0183105
4.416;-0.0210571
4.417;-0.0234985
4.418;-0.0259399
4.419;-0.0280762
4.42;-0.0299072
4.421;-0.0317383
4.422;-0.032959
4.423;-0.0341797
4.424;-0.0350952
4.425;-0.0360107
4.426;-0.0366211
4.427;-0.0375366
4.428;-0.0378418
4.429;-0.0384521
4.43;-0.0384521
4.431;-0.0384521
4.432;-0.0378418
4.433;-0.0372314
4.434;-0.0363159
4.435;-0.0350952
4.436;-0.0338745
4.437;-0.0323486
4.438;-0.0308228
4.439;-0.0289917
4.44;-0.0271606
4.441;-0.0253296
4.442;-0.0231934
4.443;-0.0213623
4.444;-0.0198364
4.445;-0.0192261
4.446;-0.0195312
4.447;-0.020752
4.448;-0.0234985
4.449;-0.0274658
4.45;-0.032959
4.451;-0.039978
4.452;-0.0482178
4.453;-0.057373
4.454;-0.0674438
4.455;-0.0772095
4.456;-0.0869751
4.457;-0.0958252
4.458;-0.10376
4.459;-0.110474
4.46;-0.115662
4.461;-0.119019
4.462;-0.119934
4.463;-0.117798
4.464;-0.11261
4.465;-0.103149
4.466;-0.0897217
4.467;-0.0714111
4.468;-0.0473022
4.469;-0.017395
4.47;0.0189209
4.471;0.0616455
4.472;0.110779
4.473;0.166016
4.474;0.226746
4.475;0.292358
4.476;0.362244
4.477;0.436707
4.478;0.515137
4.479;0.597229
4.48;0.682068
4.481;0.769348
4.482;0.858154
4.483;0.946655
4.484;1.03394
4.485;1.11877
4.486;1.19965
4.487;1.27625
4.488;1.34796
4.489;1.41418
4.49;1.4743
4.491;1.5271
4.492;1.57196
4.493;1.60767
4.494;1.6333
4.495;1.64856
4.496;1.65314
4.497;1.64734
4.498;1.63025
4.499;1.60187
4.5;1.56158
4.501;1.5097
4.502;1.44623
4.503;1.37268
4.504;1.29028
4.505;1.20087
4.506;1.10596
4.507;1.00769
4.508;0.907288
4.509;0.806274
4.51;0.706177
4.511;0.60791
4.512;0.51239
4.513;0.420837
4.514;0.333557
4.515;0.25177
4.516;0.176086
4.517;0.107727
4.518;0.0466919
4.519;-0.00640869
4.52;-0.0515747
4.521;-0.0888062
4.522;-0.117798
4.523;-0.139465
4.524;-0.153809
4.525;-0.162659
4.526;-0.166626
4.527;-0.166931
4.528;-0.16449
4.529;-0.160217
4.53;-0.155029
4.531;-0.149231
4.532;-0.143433
4.533;-0.138245
4.534;-0.133972
4.535;-0.13092
4.536;-0.128784
4.537;-0.127563
4.538;-0.127563
4.539;-0.128479
4.54;-0.13031
4.541;-0.133057
4.542;-0.136719
4.543;-0.140991
4.544;-0.145264
4.545;-0.149536
4.546;-0.153503
4.547;-0.157776
4.548;-0.161743
4.549;-0.165405
4.55;-0.169067
4.551;-0.172119
4.552;-0.174561
4.553;-0.177002
4.554;-0.179138
4.555;-0.180969
4.556;-0.182495
4.557;-0.183716
4.558;-0.184326
4.559;-0.184631
4.56;-0.184937
4.561;-0.184631
4.562;-0.184326
4.563;-0.184021
4.564;-0.183411
4.565;-0.1828
4.566;-0.18219
4.567;-0.18158
4.568;-0.180969
4.569;-0.180054
4.57;-0.178833
4.571;-0.177612
4.572;-0.176086
4.573;-0.174255
4.574;-0.172729
4.575;-0.171509
4.576;-0.169983
4.577;-0.168762
4.578;-0.167847
4.579;-0.166931
4.58;-0.166321
4.581;-0.16571
4.582;-0.164795
4.583;-0.163574
4.584;-0.162048
4.585;-0.160522
4.586;-0.158997
4.587;-0.157471
4.588;-0.156555
4.589;-0.155334
4.59;-0.154114
4.591;-0.152893
4.592;-0.151672
4.593;-0.150452
4.594;-0.149231
4.595;-0.14801
4.596;-0.14679
4.597;-0.145264
4.598;-0.143433
4.599;-0.141602
4.6;-0.139771
4.601;-0.138245
4.602;-0.136719
4.603;-0.135498
4.604;-0.134583
4.605;-0.133667
4.606;-0.133057
4.607;-0.132751
4.608;-0.132446
4.609;-0.132141
4.61;-0.131531
4.611;-0.13092
4.612;-0.1297
4.613;-0.128784
4.614;-0.127869
4.615;-0.126648
4.616;-0.125732
4.617;-0.124207
4.618;-0.122681
4.619;-0.12085
4.62;-0.118713
4.621;-0.116577
4.622;-0.114136
4.623;-0.111389
4.624;-0.108643
4.625;-0.105896
4.626;-0.103149
4.627;-0.100403
4.628;-0.0979614
4.629;-0.0958252
4.63;-0.0939941
4.631;-0.0921631
4.632;-0.0906372
4.633;-0.0894165
4.634;-0.088501
4.635;-0.0875854
4.636;-0.0866699
4.637;-0.0857544
4.638;-0.085144
4.639;-0.0848389
4.64;-0.0845337
4.641;-0.0845337
4.642;-0.0845337
4.643;-0.0845337
4.644;-0.0842285
4.645;-0.0836182
4.646;-0.0827026
4.647;-0.0820923
4.648;-0.0811768
4.649;-0.0805664
4.65;-0.0796509
4.651;-0.0787354
4.652;-0.0775146
4.653;-0.0759888
4.654;-0.0741577
4.655;-0.0720215
4.656;-0.0695801
4.657;-0.0668335
4.658;-0.0634766
4.659;-0.0604248
4.66;-0.0576782
4.661;-0.0546265
4.662;-0.0518799
4.663;-0.0494385
4.664;-0.0466919
4.665;-0.0439453
4.666;-0.0411987
4.667;-0.0384521
4.668;-0.0363159
4.669;-0.0341797
4.67;-0.0323486
4.671;-0.0305176
4.672;-0.0289917
4.673;-0.027771
4.674;-0.0268555
4.675;-0.0259399
4.676;-0.0250244
4.677;-0.0244141
4.678;-0.0238037
4.679;-0.0234985
4.68;-0.0234985
4.681;-0.0234985
4.682;-0.0234985
4.683;-0.0231934
4.684;-0.022583
4.685;-0.0216675
4.686;-0.0204468
4.687;-0.0189209
4.688;-0.0167847
4.689;-0.0146484
4.69;-0.0125122
4.691;-0.0100708
4.692;-0.00793457
4.693;-0.00579834
4.694;-0.00366211
4.695;-0.00183105
4.696;0.000305176
4.697;0.00244141
4.698;0.00457764
4.699;0.00671387
4.7;0.0088501
4.701;0.0109863
4.702;0.0134277
4.703;0.0152588
4.704;0.017395
4.705;0.0195312
4.706;0.0213623
4.707;0.0228882
4.708;0.0244141
4.709;0.0259399
4.71;0.0271606
4.711;0.0286865
4.712;0.0296021
4.713;0.0305176
4.714;0.0308228
4.715;0.0308228
4.716;0.0305176
4.717;0.0299072
4.718;0.0289917
4.719;0.027771
4.72;0.0259399
4.721;0.0238037
4.722;0.0216675
4.723;0.0192261
4.724;0.0164795
4.725;0.0134277
4.726;0.010376
4.727;0.00671387
4.728;0.00274658
4.729;-0.0012207
4.73;-0.00549316
4.731;-0.00946045
4.732;-0.0131226
4.733;-0.0164795
4.734;-0.0189209
4.735;-0.020752
4.736;-0.0219727
4.737;-0.022583
4.738;-0.0228882
4.739;-0.0228882
4.74;-0.0228882
4.741;-0.0231934
4.742;-0.0231934
4.743;-0.0234985
4.744;-0.0234985
4.745;-0.0231934
4.746;-0.0228882
4.747;-0.0222778
4.748;-0.0213623
4.749;-0.0204468
4.75;-0.0192261
4.751;-0.0180054
4.752;-0.017395
4.753;-0.017395
4.754;-0.0177002
4.755;-0.0189209
4.756;-0.0201416
4.757;-0.0219727
4.758;-0.0234985
4.759;-0.0253296
4.76;-0.0271606
4.761;-0.0289917
4.762;-0.0308228
4.763;-0.0326538
4.764;-0.0341797
4.765;-0.0357056
4.766;-0.0375366
4.767;-0.0393677
4.768;-0.0415039
4.769;-0.0430298
4.77;-0.0445557
4.771;-0.0457764
4.772;-0.0466919
4.773;-0.0476074
4.774;-0.0482178
4.775;-0.0488281
4.776;-0.0494385
4.777;-0.0494385
4.778;-0.0491333
4.779;-0.0485229
4.78;-0.0479126
4.781;-0.0469971
4.782;-0.0460815
4.783;-0.0454712
4.784;-0.0448608
4.785;-0.0439453
4.786;-0.0436401
4.787;-0.043335
4.788;-0.0430298
4.789;-0.043335
4.79;-0.0439453
4.791;-0.0448608
4.792;-0.0460815
4.793;-0.0479126
4.794;-0.0497437
4.795;-0.0515747
4.796;-0.0531006
4.797;-0.0543213
4.798;-0.0552368
4.799;-0.0558472
4.8;-0.0564575
4.801;-0.0570679
4.802;-0.0576782
4.803;-0.0579834
4.804;-0.0579834
4.805;-0.057373
4.806;-0.0564575
4.807;-0.055542
4.808;-0.0540161
4.809;-0.0521851
4.81;-0.050354
4.811;-0.0482178
4.812;-0.0457764
4.813;-0.0436401
4.814;-0.0411987
4.815;-0.0387573
4.816;-0.0363159
4.817;-0.0335693
4.818;-0.0311279
4.819;-0.0289917
4.82;-0.0274658
4.821;-0.0262451
4.822;-0.0253296
4.823;-0.0244141
4.824;-0.0241089
4.825;-0.0234985
4.826;-0.0231934
4.827;-0.022583
4.828;-0.0219727
4.829;-0.0213623
4.83;-0.0204468
4.831;-0.0198364
4.832;-0.0192261
4.833;-0.0192261
4.834;-0.0195312
4.835;-0.0201416
4.836;-0.0204468
4.837;-0.020752
4.838;-0.020752
4.839;-0.020752
4.84;-0.0204468
4.841;-0.0201416
4.842;-0.0198364
4.843;-0.0198364
4.844;-0.0201416
4.845;-0.0204468
4.846;-0.020752
4.847;-0.0213623
4.848;-0.0219727
4.849;-0.022583
4.85;-0.0228882
4.851;-0.0234985
4.852;-0.0241089
4.853;-0.0241089
4.854;-0.0244141
4.855;-0.0244141
4.856;-0.0241089
4.857;-0.0238037
4.858;-0.0238037
4.859;-0.0238037
4.86;-0.0241089
4.861;-0.0247192
4.862;-0.0250244
4.863;-0.0253296
4.864;-0.0253296
4.865;-0.0250244
4.866;-0.0244141
4.867;-0.0238037
4.868;-0.0228882
4.869;-0.0219727
4.87;-0.0213623
4.871;-0.0204468
4.872;-0.0201416
4.873;-0.0198364
4.874;-0.0195312
4.875;-0.0195312
4.876;-0.0192261
4.877;-0.0192261
4.878;-0.0189209
4.879;-0.0189209
4.88;-0.0189209
4.881;-0.0186157
4.882;-0.0189209
4.883;-0.0189209
4.884;-0.0189209
4.885;-0.0189209
4.886;-0.0192261
4.887;-0.0201416
4.888;-0.0210571
4.889;-0.0222778
4.89;-0.0234985
4.891;-0.0250244
4.892;-0.0268555
4.893;-0.0292969
4.894;-0.0317383
4.895;-0.0344849
4.896;-0.0372314
4.897;-0.0396729
4.898;-0.0418091
4.899;-0.0439453
4.9;-0.0457764
4.901;-0.0476074
4.902;-0.0497437
4.903;-0.0518799
4.904;-0.0540161
4.905;-0.0558472
4.906;-0.0576782
4.907;-0.0595093
4.908;-0.0613403
4.909;-0.062561
4.91;-0.0637817
4.911;-0.0646973
4.912;-0.0653076
4.913;-0.0656128
4.914;-0.0662231
4.915;-0.0665283
4.916;-0.0668335
4.917;-0.0674438
4.918;-0.0683594
4.919;-0.0692749
4.92;-0.0701904
4.921;-0.0714111
4.922;-0.0726318
4.923;-0.0735474
4.924;-0.0744629
4.925;-0.0750732
4.926;-0.0753784
4.927;-0.0756836
4.928;-0.0759888
4.929;-0.0762939
4.93;-0.0765991
4.931;-0.0769043
4.932;-0.0769043
4.933;-0.0769043
4.934;-0.0765991
4.935;-0.0759888
4.936;-0.0750732
4.937;-0.0732422
4.938;-0.071106
4.939;-0.0683594
4.94;-0.0656128
4.941;-0.062561
4.942;-0.0595093
4.943;-0.0561523
4.944;-0.0527954
4.945;-0.0488281
4.946;-0.0448608
4.947;-0.0405884
4.948;-0.0360107
4.949;-0.0314331
4.95;-0.0265503
4.951;-0.0216675
4.952;-0.0167847
4.953;-0.0119019
4.954;-0.00732422
4.955;-0.00244141
4.956;0.00274658
4.957;0.00793457
4.958;0.0134277
4.959;0.0186157
4.96;0.0241089
4.961;0.0292969
4.962;0.0350952
4.963;0.0411987
4.964;0.0476074
4.965;0.0540161
4.966;0.06073
4.967;0.0674438
4.968;0.0735474
4.969;0.0796509
4.97;0.085144
4.971;0.0906372
4.972;0.09552
4.973;0.100403
4.974;0.104675
4.975;0.108643
4.976;0.112
4.977;0.115051
4.978;0.117493
4.979;0.119324
4.98;0.12085
4.981;0.12146
4.982;0.121765
4.983;0.121765
4.984;0.121155
4.985;0.120239
4.986;0.118713
4.987;0.116882
4.988;0.114746
4.989;0.112
4.99;0.108948
4.991;0.105591
4.992;0.101929
4.993;0.0979614
4.994;0.093689
4.995;0.0894165
4.996;0.0845337
4.997;0.0796509
4.998;0.0744629
4.999;0.0683594
5;0.0619507
5.001;0.0549316
5.002;0.0469971
5.003;0.0387573
5.004;0.0302124
5.005;0.0213623
5.006;0.0119019
5.007;0.00274658
5.008;-0.00671387
5.009;-0.015564
5.01;-0.0241089
5.011;-0.0323486
5.012;-0.0402832
5.013;-0.0476074
5.014;-0.0549316
5.015;-0.0616455
5.016;-0.0680542
5.017;-0.0738525
5.018;-0.0793457
5.019;-0.085144
5.02;-0.0906372
5.021;-0.0958252
5.022;-0.100708
5.023;-0.10498
5.024;-0.108643
5.025;-0.111694
5.026;-0.114746
5.027;-0.117493
5.028;-0.119934
5.029;-0.122375
5.03;-0.124817
5.031;-0.126953
5.032;-0.129089
5.033;-0.131226
5.034;-0.133057
5.035;-0.134888
5.036;-0.136414
5.037;-0.137329
5.038;-0.137939
5.039;-0.137939
5.04;-0.137939
5.041;-0.137634
5.042;-0.137024
5.043;-0.135803
5.044;-0.134583
5.045;-0.133362
5.046;-0.131836
5.047;-0.130005
5.048;-0.128479
5.049;-0.126953
5.05;-0.125427
5.051;-0.124207
5.052;-0.123901
5.053;-0.124207
5.054;-0.125427
5.055;-0.127563
5.056;-0.130615
5.057;-0.134888
5.058;-0.140076
5.059;-0.146484
5.06;-0.154114
5.061;-0.162964
5.062;-0.172729
5.063;-0.1828
5.064;-0.192871
5.065;-0.202942
5.066;-0.212402
5.067;-0.221252
5.068;-0.228577
5.069;-0.23407
5.07;-0.237427
5.071;-0.238342
5.072;-0.236511
5.073;-0.231628
5.074;-0.223083
5.075;-0.210571
5.076;-0.193481
5.077;-0.171204
5.078;-0.143127
5.079;-0.108948
5.08;-0.0686646
5.081;-0.0222778
5.082;0.0302124
5.083;0.088501
5.084;0.151672
5.085;0.219116
5.086;0.291138
5.087;0.367432
5.088;0.447693
5.089;0.531311
5.09;0.617981
5.091;0.706787
5.092;0.795898
5.093;0.884705
5.094;0.971985
5.095;1.05652
5.096;1.13739
5.097;1.21399
5.098;1.28571
5.099;1.35162
5.1;1.41022
5.101;1.46057
5.102;1.50208
5.103;1.53381
5.104;1.55487
5.105;1.56525
5.106;1.56403
5.107;1.55151
5.108;1.52679
5.109;1.49017
5.11;1.44104
5.111;1.38
5.112;1.30829
5.113;1.22681
5.114;1.13739
5.115;1.04187
5.116;0.942078
5.117;0.839844
5.118;0.736694
5.119;0.633545
5.12;0.532227
5.121;0.432739
5.122;0.336914
5.123;0.245056
5.124;0.158386
5.125;0.0775146
5.126;0.00366211
5.127;-0.062561
5.128;-0.12085
5.129;-0.170288
5.13;-0.211487
5.131;-0.244141
5.132;-0.26886
5.133;-0.286865
5.134;-0.298462
5.135;-0.305176
5.136;-0.307617
5.137;-0.307007
5.138;-0.303955
5.139;-0.299683
5.14;-0.294495
5.141;-0.289307
5.142;-0.284729
5.143;-0.280457
5.144;-0.2771
5.145;-0.274353
5.146;-0.272522
5.147;-0.271301
5.148;-0.270996
5.149;-0.271301
5.15;-0.272522
5.151;-0.274353
5.152;-0.276184
5.153;-0.27832
5.154;-0.280762
5.155;-0.283203
5.156;-0.285339
5.157;-0.28717
5.158;-0.289001
5.159;-0.290833
5.16;-0.292053
5.161;-0.293579
5.162;-0.294495
5.163;-0.29541
5.164;-0.296021
5.165;-0.296021
5.166;-0.296021
5.167;-0.295715
5.168;-0.2948
5.169;-0.293884
5.17;-0.292358
5.171;-0.290833
5.172;-0.288391
5.173;-0.28595
5.174;-0.283508
5.175;-0.280762
5.176;-0.278015
5.177;-0.274658
5.178;-0.271606
5.179;-0.26825
5.18;-0.264893
5.181;-0.261536
5.182;-0.258484
5.183;-0.255127
5.184;-0.252075
5.185;-0.249329
5.186;-0.246887
5.187;-0.245056
5.188;-0.24353
5.189;-0.24231
5.19;-0.241394
5.191;-0.240479
5.192;-0.240173
5.193;-0.240173
5.194;-0.240784
5.195;-0.241394
5.196;-0.24231
5.197;-0.24292
5.198;-0.24353
5.199;-0.244446
5.2;-0.245361
5.201;-0.245972
5.202;-0.246582
5.203;-0.246277
5.204;-0.245667
5.205;-0.244446
5.206;-0.242615
5.207;-0.240784
5.208;-0.238342
5.209;-0.235596
5.21;-0.232544
5.211;-0.229187
5.212;-0.22583
5.213;-0.222778
5.214;-0.219421
5.215;-0.21637
5.216;-0.213013
5.217;-0.209961
5.218;-0.206909
5.219;-0.204163
5.22;-0.201416
5.221;-0.198975
5.222;-0.196533
5.223;-0.193787
5.224;-0.191345
5.225;-0.188599
5.226;-0.186157
5.227;-0.183716
5.228;-0.181885
5.229;-0.180054
5.23;-0.178528
5.231;-0.177002
5.232;-0.176086
5.233;-0.175171
5.234;-0.174561
5.235;-0.17395
5.236;-0.173035
5.237;-0.172119
5.238;-0.171204
5.239;-0.170593
5.24;-0.169678
5.241;-0.169067
5.242;-0.168762
5.243;-0.167847
5.244;-0.166321
5.245;-0.164795
5.246;-0.162964
5.247;-0.160828
5.248;-0.158386
5.249;-0.155945
5.25;-0.153503
5.251;-0.150757
5.252;-0.147705
5.253;-0.144653
5.254;-0.141602
5.255;-0.13855
5.256;-0.135193
5.257;-0.131836
5.258;-0.128479
5.259;-0.124817
5.26;-0.121765
5.261;-0.118408
5.262;-0.115356
5.263;-0.11261
5.264;-0.109558
5.265;-0.106812
5.266;-0.10437
5.267;-0.102234
5.268;-0.0997925
5.269;-0.0976562
5.27;-0.0952148
5.271;-0.0927734
5.272;-0.0900269
5.273;-0.0872803
5.274;-0.0845337
5.275;-0.0817871
5.276;-0.0790405
5.277;-0.0765991
5.278;-0.0741577
5.279;-0.0717163
5.28;-0.0692749
5.281;-0.0668335
5.282;-0.0646973
5.283;-0.0628662
5.284;-0.0610352
5.285;-0.0595093
5.286;-0.0579834
5.287;-0.0570679
5.288;-0.0561523
5.289;-0.055542
5.29;-0.0552368
5.291;-0.0549316
5.292;-0.0549316
5.293;-0.0549316
5.294;-0.0549316
5.295;-0.0546265
5.296;-0.0540161
5.297;-0.0534058
5.298;-0.0521851
5.299;-0.0512695
5.3;-0.050354
5.301;-0.0494385
5.302;-0.0485229
5.303;-0.0479126
5.304;-0.0466919
5.305;-0.0454712
5.306;-0.0442505
5.307;-0.0427246
5.308;-0.0408936
5.309;-0.0390625
5.31;-0.0372314
5.311;-0.0354004
5.312;-0.0338745
5.313;-0.0323486
5.314;-0.0314331
5.315;-0.0302124
5.316;-0.0289917
5.317;-0.027771
5.318;-0.0262451
5.319;-0.0253296
5.32;-0.0244141
5.321;-0.0238037
5.322;-0.0238037
5.323;-0.0238037
5.324;-0.0241089
5.325;-0.0241089
5.326;-0.0241089
5.327;-0.0238037
5.328;-0.0234985
5.329;-0.0228882
5.33;-0.0219727
5.331;-0.0213623
5.332;-0.0204468
5.333;-0.0198364
5.334;-0.0192261
5.335;-0.0186157
5.336;-0.0180054
5.337;-0.017395
5.338;-0.0164795
5.339;-0.0158691
5.34;-0.0149536
5.341;-0.0143433
5.342;-0.0137329
5.343;-0.0131226
5.344;-0.012207
5.345;-0.0115967
5.346;-0.0109863
5.347;-0.010376
5.348;-0.0100708
5.349;-0.00976562
5.35;-0.00976562
5.351;-0.00976562
5.352;-0.0100708
5.353;-0.0106812
5.354;-0.0109863
5.355;-0.0115967
5.356;-0.012207
5.357;-0.0128174
5.358;-0.0137329
5.359;-0.0146484
5.36;-0.015564
5.361;-0.0170898
5.362;-0.0186157
5.363;-0.0204468
5.364;-0.0219727
5.365;-0.0238037
5.366;-0.0256348
5.367;-0.0274658
5.368;-0.0292969
5.369;-0.0311279
5.37;-0.032959
5.371;-0.0354004
5.372;-0.0375366
5.373;-0.0402832
5.374;-0.0430298
5.375;-0.0457764
5.376;-0.0482178
5.377;-0.050354
5.378;-0.0518799
5.379;-0.0527954
5.38;-0.0537109
5.381;-0.0543213
5.382;-0.0546265
5.383;-0.0552368
5.384;-0.0558472
5.385;-0.0564575
5.386;-0.057373
5.387;-0.0576782
5.388;-0.0576782
5.389;-0.057373
5.39;-0.0564575
5.391;-0.0549316
5.392;-0.0534058
5.393;-0.0515747
5.394;-0.0497437
5.395;-0.0482178
5.396;-0.0466919
5.397;-0.045166
5.398;-0.0439453
5.399;-0.0427246
5.4;-0.0418091
5.401;-0.0411987
5.402;-0.0405884
5.403;-0.0396729
5.404;-0.0390625
5.405;-0.0378418
5.406;-0.0369263
5.407;-0.0360107
5.408;-0.03479
5.409;-0.0338745
5.41;-0.032959
5.411;-0.0323486
5.412;-0.0317383
5.413;-0.0314331
5.414;-0.0308228
5.415;-0.0302124
5.416;-0.0296021
5.417;-0.0283813
5.418;-0.0271606
5.419;-0.0256348
5.42;-0.0241089
5.421;-0.022583
5.422;-0.020752
5.423;-0.0189209
5.424;-0.0170898
5.425;-0.0149536
5.426;-0.0131226
5.427;-0.0112915
5.428;-0.00946045
5.429;-0.00793457
5.43;-0.00640869
5.431;-0.00488281
5.432;-0.00366211
5.433;-0.00244141
5.434;-0.0012207
5.435;0
5.436;0.0012207
5.437;0.00244141
5.438;0.00396729
5.439;0.00549316
5.44;0.00671387
5.441;0.00793457
5.442;0.00915527
5.443;0.010376
5.444;0.0119019
5.445;0.0134277
5.446;0.0149536
5.447;0.0167847
5.448;0.0186157
5.449;0.0204468
5.45;0.022583
5.451;0.0247192
5.452;0.0265503
5.453;0.0280762
5.454;0.0296021
5.455;0.0308228
5.456;0.0320435
5.457;0.032959
5.458;0.0341797
5.459;0.0350952
5.46;0.0360107
5.461;0.0366211
5.462;0.0372314
5.463;0.038147
5.464;0.0387573
5.465;0.0393677
5.466;0.039978
5.467;0.039978
5.468;0.039978
5.469;0.0396729
5.47;0.0390625
5.471;0.0387573
5.472;0.0378418
5.473;0.0369263
5.474;0.0360107
5.475;0.0350952
5.476;0.0338745
5.477;0.032959
5.478;0.0317383
5.479;0.0308228
5.48;0.0296021
5.481;0.0283813
5.482;0.0271606
5.483;0.0256348
5.484;0.0238037
5.485;0.0219727
5.486;0.0198364
5.487;0.0177002
5.488;0.0152588
5.489;0.0131226
5.49;0.0112915
5.491;0.00946045
5.492;0.00823975
5.493;0.00732422
5.494;0.00671387
5.495;0.00671387
5.496;0.00671387
5.497;0.00701904
5.498;0.00732422
5.499;0.00732422
5.5;0.00762939
5.501;0.00762939
5.502;0.00762939
5.503;0.00793457
5.504;0.00854492
5.505;0.00946045
5.506;0.010376
5.507;0.0112915
5.508;0.012207
5.509;0.0131226
5.51;0.0140381
5.511;0.0143433
5.512;0.0143433
5.513;0.0143433
5.514;0.0140381
5.515;0.0137329
5.516;0.0137329
5.517;0.0140381
5.518;0.0143433
5.519;0.0143433
5.52;0.0143433
5.521;0.0140381
5.522;0.0137329
5.523;0.0134277
5.524;0.0134277
5.525;0.0137329
5.526;0.0140381
5.527;0.0143433
5.528;0.0146484
5.529;0.0149536
5.53;0.0152588
5.531;0.015564
5.532;0.0158691
5.533;0.0158691
5.534;0.0158691
5.535;0.0158691
5.536;0.0158691
5.537;0.0158691
5.538;0.0161743
5.539;0.0161743
5.54;0.0161743
5.541;0.0161743
5.542;0.0158691
5.543;0.0158691
5.544;0.0158691
5.545;0.0161743
5.546;0.0161743
5.547;0.0164795
5.548;0.0164795
5.549;0.0164795
5.55;0.0164795
5.551;0.0164795
5.552;0.0164795
5.553;0.0158691
5.554;0.015564
5.555;0.0149536
5.556;0.0146484
5.557;0.0143433
5.558;0.0140381
5.559;0.0131226
5.56;0.012207
5.561;0.0109863
5.562;0.00946045
5.563;0.00823975
5.564;0.00732422
5.565;0.00640869
5.566;0.00549316
5.567;0.00457764
5.568;0.00366211
5.569;0.00305176
5.57;0.00244141
5.571;0.00183105
5.572;0.00152588
5.573;0.000915527
5.574;0.000610352
5.575;0.000610352
5.576;0.000915527
5.577;0.00152588
5.578;0.00183105
5.579;0.00244141
5.58;0.00274658
5.581;0.00305176
5.582;0.00335693
5.583;0.00366211
5.584;0.00366211
5.585;0.00305176
5.586;0.00244141
5.587;0.00183105
5.588;0.0012207
5.589;0.000610352
5.59;0
5.591;-0.000610352
5.592;-0.00152588
5.593;-0.00244141
5.594;-0.00335693
5.595;-0.00427246
5.596;-0.00488281
5.597;-0.00518799
5.598;-0.00549316
5.599;-0.00518799
5.6;-0.00518799
5.601;-0.00518799
5.602;-0.00488281
5.603;-0.00488281
5.604;-0.00457764
5.605;-0.00396729
5.606;-0.00335693
5.607;-0.00274658
5.608;-0.00183105
5.609;-0.000915527
5.61;0
5.611;0.0012207
5.612;0.00183105
5.613;0.00244141
5.614;0.00305176
5.615;0.00305176
5.616;0.00335693
5.617;0.00366211
5.618;0.00396729
5.619;0.00427246
5.62;0.00427246
5.621;0.00457764
5.622;0.00518799
5.623;0.00610352
5.624;0.00732422
5.625;0.0088501
5.626;0.0100708
5.627;0.0112915
5.628;0.0125122
5.629;0.0131226
5.63;0.0137329
5.631;0.0140381
5.632;0.0140381
5.633;0.0140381
5.634;0.0140381
5.635;0.0143433
5.636;0.0146484
5.637;0.0146484
5.638;0.0146484
5.639;0.0146484
5.64;0.0143433
5.641;0.0137329
5.642;0.0131226
5.643;0.0125122
5.644;0.0115967
5.645;0.0109863
5.646;0.010376
5.647;0.010376
5.648;0.0106812
5.649;0.0115967
5.65;0.0125122
5.651;0.0140381
5.652;0.015564
5.653;0.017395
5.654;0.0189209
5.655;0.0204468
5.656;0.0216675
5.657;0.0231934
5.658;0.0244141
5.659;0.0253296
5.66;0.0262451
5.661;0.0268555
5.662;0.0274658
5.663;0.027771
5.664;0.027771
5.665;0.0274658
5.666;0.0271606
5.667;0.0265503
5.668;0.0256348
5.669;0.0247192
5.67;0.0238037
5.671;0.0228882
5.672;0.0222778
5.673;0.0219727
5.674;0.0213623
5.675;0.0213623
5.676;0.0216675
5.677;0.0219727
5.678;0.0222778
5.679;0.0222778
5.68;0.0222778
5.681;0.0222778
5.682;0.022583
5.683;0.0228882
5.684;0.0234985
5.685;0.0241089
5.686;0.0250244
5.687;0.0256348
5.688;0.0262451
5.689;0.0274658
5.69;0.0283813
5.691;0.0296021
5.692;0.0311279
5.693;0.0323486
5.694;0.0341797
5.695;0.0360107
5.696;0.0384521
5.697;0.0411987
5.698;0.0439453
5.699;0.0469971
5.7;0.050354
5.701;0.0540161
5.702;0.0579834
5.703;0.0622559
5.704;0.0665283
5.705;0.071106
5.706;0.0750732
5.707;0.0784302
5.708;0.0817871
5.709;0.0845337
5.71;0.0869751
5.711;0.0894165
5.712;0.0915527
5.713;0.0933838
5.714;0.0952148
5.715;0.0970459
5.716;0.0985718
5.717;0.0997925
5.718;0.101013
5.719;0.101929
5.72;0.102844
5.721;0.103455
5.722;0.10437
5.723;0.105286
5.724;0.105896
5.725;0.106506
5.726;0.106812
5.727;0.106506
5.728;0.106201
5.729;0.105286
5.73;0.10437
5.731;0.103455
5.732;0.102234
5.733;0.100708
5.734;0.098877
5.735;0.0967407
5.736;0.0949097
5.737;0.0924683
5.738;0.0900269
5.739;0.0869751
5.74;0.0839233
5.741;0.0805664
5.742;0.0775146
5.743;0.0750732
5.744;0.072937
5.745;0.0714111
5.746;0.0701904
5.747;0.0692749
5.748;0.0683594
5.749;0.0674438
5.75;0.0665283
5.751;0.065918
5.752;0.0650024
5.753;0.0640869
5.754;0.0634766
5.755;0.0628662
5.756;0.062561
5.757;0.0622559
5.758;0.0616455
5.759;0.0610352
5.76;0.0601196
5.761;0.0588989
5.762;0.0576782
5.763;0.0564575
5.764;0.055542
5.765;0.0543213
5.766;0.0531006
5.767;0.0521851
5.768;0.0512695
5.769;0.050354
5.77;0.0494385
5.771;0.0482178
5.772;0.0473022
5.773;0.0460815
5.774;0.0445557
5.775;0.043335
5.776;0.0427246
5.777;0.0424194
5.778;0.0427246
5.779;0.043335
5.78;0.0439453
5.781;0.0448608
5.782;0.0460815
5.783;0.0469971
5.784;0.0482178
5.785;0.0494385
5.786;0.0506592
5.787;0.0521851
5.788;0.0537109
5.789;0.0549316
5.79;0.0561523
5.791;0.0561523
5.792;0.055542
5.793;0.0537109
5.794;0.050354
5.795;0.045166
5.796;0.0384521
5.797;0.0305176
5.798;0.0210571
5.799;0.0109863
5.8;0.000305176
5.801;-0.0106812
5.802;-0.0213623
5.803;-0.0317383
5.804;-0.0408936
5.805;-0.0485229
5.806;-0.0540161
5.807;-0.057373
5.808;-0.0576782
5.809;-0.0546265
5.81;-0.0479126
5.811;-0.0366211
5.812;-0.0204468
5.813;0.000915527
5.814;0.0283813
5.815;0.0619507
5.816;0.101929
5.817;0.148315
5.818;0.200195
5.819;0.257263
5.82;0.319214
5.821;0.385742
5.822;0.456848
5.823;0.531921
5.824;0.610962
5.825;0.693665
5.826;0.779114
5.827;0.866394
5.828;0.953979
5.829;1.04095
5.83;1.12579
5.831;1.20728
5.832;1.2851
5.833;1.35864
5.834;1.42761
5.835;1.49139
5.836;1.54938
5.837;1.60065
5.838;1.64398
5.839;1.67816
5.84;1.70197
5.841;1.7157
5.842;1.71844
5.843;1.71051
5.844;1.69128
5.845;1.66016
5.846;1.61743
5.847;1.56311
5.848;1.49811
5.849;1.42334
5.85;1.34033
5.851;1.25061
5.852;1.15601
5.853;1.05835
5.854;0.958862
5.855;0.859375
5.856;0.760498
5.857;0.663757
5.858;0.569763
5.859;0.479736
5.86;0.393982
5.861;0.314026
5.862;0.240479
5.863;0.17395
5.864;0.115356
5.865;0.0646973
5.866;0.0219727
5.867;-0.0125122
5.868;-0.0393677
5.869;-0.0592041
5.87;-0.0726318
5.871;-0.0805664
5.872;-0.0845337
5.873;-0.0848389
5.874;-0.0827026
5.875;-0.0790405
5.876;-0.0744629
5.877;-0.0698853
5.878;-0.0653076
5.879;-0.0619507
5.88;-0.0592041
5.881;-0.0579834
5.882;-0.0576782
5.883;-0.0582886
5.884;-0.0598145
5.885;-0.0619507
5.886;-0.0646973
5.887;-0.067749
5.888;-0.071106
5.889;-0.0747681
5.89;-0.0787354
5.891;-0.0823975
5.892;-0.0860596
5.893;-0.0897217
5.894;-0.0927734
5.895;-0.0958252
5.896;-0.0982666
5.897;-0.100403
5.898;-0.101929
5.899;-0.103455
5.9;-0.104065
5.901;-0.104675
5.902;-0.104675
5.903;-0.104065
5.904;-0.103455
5.905;-0.102539
5.906;-0.101624
5.907;-0.101013
5.908;-0.100708
5.909;-0.100403
5.91;-0.100098
5.911;-0.100403
5.912;-0.100708
5.913;-0.101318
5.914;-0.102234
5.915;-0.103149
5.916;-0.10376
5.917;-0.104065
5.918;-0.10437
5.919;-0.10437
5.92;-0.10437
5.921;-0.104065
5.922;-0.10376
5.923;-0.102844
5.924;-0.101929
5.925;-0.101013
5.926;-0.0994873
5.927;-0.0973511
5.928;-0.0952148
5.929;-0.0924683
5.93;-0.0897217
5.931;-0.0869751
5.932;-0.0842285
5.933;-0.0814819
5.934;-0.0790405
5.935;-0.0762939
5.936;-0.0738525
5.937;-0.0714111
5.938;-0.0692749
5.939;-0.0671387
5.94;-0.0656128
5.941;-0.0643921
5.942;-0.0634766
5.943;-0.062561
5.944;-0.0622559
5.945;-0.0616455
5.946;-0.0613403
5.947;-0.0610352
5.948;-0.0604248
5.949;-0.0598145
5.95;-0.0588989
5.951;-0.0579834
5.952;-0.0570679
5.953;-0.0558472
5.954;-0.0546265
5.955;-0.0534058
5.956;-0.0518799
5.957;-0.050354
5.958;-0.0491333
5.959;-0.0476074
5.96;-0.0463867
5.961;-0.0457764
5.962;-0.045166
5.963;-0.0445557
5.964;-0.0436401
5.965;-0.0427246
5.966;-0.0421143
5.967;-0.0415039
5.968;-0.0408936
5.969;-0.0405884
5.97;-0.0402832
5.971;-0.039978
5.972;-0.039978
5.973;-0.0402832
5.974;-0.0402832
5.975;-0.039978
5.976;-0.0393677
5.977;-0.0384521
5.978;-0.0375366
5.979;-0.0363159
5.98;-0.0350952
5.981;-0.0338745
5.982;-0.032959
5.983;-0.0320435
5.984;-0.0308228
5.985;-0.0299072
5.986;-0.0289917
5.987;-0.027771
5.988;-0.0265503
5.989;-0.0250244
5.99;-0.0231934
5.991;-0.0213623
5.992;-0.0192261
5.993;-0.017395
5.994;-0.015564
5.995;-0.0137329
5.996;-0.0115967
5.997;-0.00946045
5.998;-0.00701904
5.999;-0.00457764
6;-0.00213623
6.001;0.000305176
6.002;0.00305176
6.003;0.00549316
6.004;0.00823975
6.005;0.0106812
6.006;0.0128174
6.007;0.0146484
6.008;0.0164795
6.009;0.0177002
6.01;0.0189209
6.011;0.0201416
6.012;0.020752
6.013;0.0216675
6.014;0.022583
6.015;0.0238037
6.016;0.0253296
6.017;0.0274658
6.018;0.0296021
6.019;0.0317383
6.02;0.0338745
6.021;0.0360107
6.022;0.0384521
6.023;0.0411987
6.024;0.0442505
6.025;0.0476074
6.026;0.0509644
6.027;0.0546265
6.028;0.0579834
6.029;0.0616455
6.03;0.0653076
6.031;0.0686646
6.032;0.0720215
6.033;0.0747681
6.034;0.0772095
6.035;0.0796509
6.036;0.0814819
6.037;0.083313
6.038;0.0845337
6.039;0.0857544
6.04;0.0866699
6.041;0.0869751
6.042;0.0875854
6.043;0.088501
6.044;0.0894165
6.045;0.0906372
6.046;0.0921631
6.047;0.093689
6.048;0.0958252
6.049;0.0979614
6.05;0.100403
6.051;0.103149
6.052;0.105591
6.053;0.107727
6.054;0.109863
6.055;0.112
6.056;0.114136
6.057;0.116272
6.058;0.118103
6.059;0.119934
6.06;0.12146
6.061;0.122681
6.062;0.123901
6.063;0.124817
6.064;0.125427
6.065;0.125732
6.066;0.125732
6.067;0.125122
6.068;0.124207
6.069;0.123291
6.07;0.122681
6.071;0.121765
6.072;0.12085
6.073;0.120239
6.074;0.119324
6.075;0.119019
6.076;0.119019
6.077;0.119019
6.078;0.119324
6.079;0.119629
6.08;0.119629
6.081;0.119324
6.082;0.119019
6.083;0.118713
6.084;0.118103
6.085;0.117798
6.086;0.116882
6.087;0.115967
6.088;0.115051
6.089;0.113831
6.09;0.112305
6.091;0.111084
6.092;0.109863
6.093;0.108643
6.094;0.107117
6.095;0.105591
6.096;0.104065
6.097;0.102234
6.098;0.100708
6.099;0.0985718
6.1;0.0961304
6.101;0.093689
6.102;0.0909424
6.103;0.0881958
6.104;0.0857544
6.105;0.0836182
6.106;0.0814819
6.107;0.0796509
6.108;0.078125
6.109;0.0769043
6.11;0.0762939
6.111;0.0762939
6.112;0.0762939
6.113;0.0765991
6.114;0.0772095
6.115;0.0778198
6.116;0.0784302
6.117;0.0796509
6.118;0.0808716
6.119;0.0823975
6.12;0.0842285
6.121;0.0863647
6.122;0.0891113
6.123;0.0918579
6.124;0.0946045
6.125;0.0973511
6.126;0.0994873
6.127;0.101318
6.128;0.102539
6.129;0.10376
6.13;0.10437
6.131;0.104675
6.132;0.104675
6.133;0.104675
6.134;0.104065
6.135;0.103455
6.136;0.102539
6.137;0.101624
6.138;0.100403
6.139;0.098877
6.14;0.0973511
6.141;0.09552
6.142;0.0939941
6.143;0.0924683
6.144;0.0912476
6.145;0.090332
6.146;0.0897217
6.147;0.0897217
6.148;0.0900269
6.149;0.090332
6.15;0.0912476
6.151;0.0918579
6.152;0.0924683
6.153;0.0930786
6.154;0.093689
6.155;0.0942993
6.156;0.0952148
6.157;0.0961304
6.158;0.0967407
6.159;0.0976562
6.16;0.0982666
6.161;0.098877
6.162;0.0997925
6.163;0.100403
6.164;0.101013
6.165;0.101318
6.166;0.101624
6.167;0.101929
6.168;0.101624
6.169;0.101624
6.17;0.101318
6.171;0.101318
6.172;0.101318
6.173;0.101624
6.174;0.101929
6.175;0.102234
6.176;0.102844
6.177;0.103455
6.178;0.103455
6.179;0.103455
6.18;0.102844
6.181;0.102234
6.182;0.101624
6.183;0.101318
6.184;0.101624
6.185;0.102234
6.186;0.103149
6.187;0.104065
6.188;0.105286
6.189;0.106201
6.19;0.107727
6.191;0.109253
6.192;0.111084
6.193;0.11322
6.194;0.115662
6.195;0.118713
6.196;0.121765
6.197;0.125122
6.198;0.128479
6.199;0.132141
6.2;0.135803
6.201;0.13916
6.202;0.142517
6.203;0.145569
6.204;0.148621
6.205;0.151062
6.206;0.153198
6.207;0.155029
6.208;0.15625
6.209;0.15686
6.21;0.157166
6.211;0.157166
6.212;0.15625
6.213;0.155029
6.214;0.153503
6.215;0.151978
6.216;0.150452
6.217;0.148926
6.218;0.1474
6.219;0.145874
6.22;0.144348
6.221;0.142517
6.222;0.140686
6.223;0.13916
6.224;0.137024
6.225;0.135193
6.226;0.133362
6.227;0.131226
6.228;0.129395
6.229;0.127869
6.23;0.126343
6.231;0.125122
6.232;0.123291
6.233;0.12146
6.234;0.119629
6.235;0.118103
6.236;0.116577
6.237;0.115662
6.238;0.114746
6.239;0.113831
6.24;0.112915
6.241;0.112
6.242;0.111084
6.243;0.110168
6.244;0.109253
6.245;0.108337
6.246;0.107422
6.247;0.106506
6.248;0.105591
6.249;0.10498
6.25;0.10437
6.251;0.10376
6.252;0.103149
6.253;0.102234
6.254;0.101013
6.255;0.0991821
6.256;0.0976562
6.257;0.0958252
6.258;0.0939941
6.259;0.0924683
6.26;0.0912476
6.261;0.0900269
6.262;0.0894165
6.263;0.0888062
6.264;0.0888062
6.265;0.0888062
6.266;0.0891113
6.267;0.0897217
6.268;0.0906372
6.269;0.0918579
6.27;0.0933838
6.271;0.0949097
6.272;0.0961304
6.273;0.0973511
6.274;0.0979614
6.275;0.0985718
6.276;0.098877
6.277;0.0985718
6.278;0.0979614
6.279;0.0967407
6.28;0.0952148
6.281;0.0927734
6.282;0.090332
6.283;0.0872803
6.284;0.0842285
6.285;0.0808716
6.286;0.0772095
6.287;0.0735474
6.288;0.0701904
6.289;0.0665283
6.29;0.0628662
6.291;0.0595093
6.292;0.0564575
6.293;0.0537109
6.294;0.0515747
6.295;0.0500488
6.296;0.0491333
6.297;0.0491333
6.298;0.0494385
6.299;0.0500488
6.3;0.0509644
6.301;0.0524902
6.302;0.0543213
6.303;0.0567627
6.304;0.0592041
6.305;0.0616455
6.306;0.0640869
6.307;0.0662231
6.308;0.0680542
6.309;0.0698853
6.31;0.0717163
6.311;0.0732422
6.312;0.0744629
6.313;0.0753784
6.314;0.0759888
6.315;0.0765991
6.316;0.0765991
6.317;0.0762939
6.318;0.0759888
6.319;0.0753784
6.32;0.0744629
6.321;0.0735474
6.322;0.0723267
6.323;0.071106
6.324;0.0698853
6.325;0.0686646
6.326;0.067749
6.327;0.0665283
6.328;0.0656128
6.329;0.0650024
6.33;0.0643921
6.331;0.0637817
6.332;0.0634766
6.333;0.0628662
6.334;0.062561
6.335;0.062561
6.336;0.0631714
6.337;0.0640869
6.338;0.0653076
6.339;0.0671387
6.34;0.0689697
6.341;0.0708008
6.342;0.0726318
6.343;0.0744629
6.344;0.0762939
6.345;0.078125
6.346;0.0799561
6.347;0.0817871
6.348;0.0836182
6.349;0.0854492
6.35;0.0875854
6.351;0.0897217
6.352;0.0915527
6.353;0.0930786
6.354;0.0946045
6.355;0.09552
6.356;0.0961304
6.357;0.0967407
6.358;0.0967407
6.359;0.0961304
6.36;0.0952148
6.361;0.0939941
6.362;0.0927734
6.363;0.0915527
6.364;0.0906372
6.365;0.0894165
6.366;0.088501
6.367;0.0878906
6.368;0.0869751
6.369;0.0863647
6.37;0.0857544
6.371;0.085144
6.372;0.0845337
6.373;0.083313
6.374;0.0820923
6.375;0.0811768
6.376;0.0802612
6.377;0.0796509
6.378;0.0796509
6.379;0.0796509
6.38;0.0802612
6.381;0.0805664
6.382;0.0814819
6.383;0.0823975
6.384;0.0836182
6.385;0.0848389
6.386;0.0857544
6.387;0.0866699
6.388;0.0875854
6.389;0.0881958
6.39;0.0888062
6.391;0.0891113
6.392;0.0894165
6.393;0.0894165
6.394;0.0891113
6.395;0.0891113
6.396;0.0888062
6.397;0.088501
6.398;0.0878906
6.399;0.0872803
6.4;0.0866699
6.401;0.0854492
6.402;0.0845337
6.403;0.0836182
6.404;0.0827026
6.405;0.0817871
6.406;0.0808716
6.407;0.0802612
6.408;0.0799561
6.409;0.0796509
6.41;0.0796509
6.411;0.0799561
6.412;0.0802612
6.413;0.0805664
6.414;0.0808716
6.415;0.0814819
6.416;0.0820923
6.417;0.083313
6.418;0.0845337
6.419;0.0857544
6.42;0.0869751
6.421;0.0878906
6.422;0.0891113
6.423;0.0897217
6.424;0.090332
6.425;0.0906372
6.426;0.0906372
6.427;0.090332
6.428;0.090332
6.429;0.0906372
6.43;0.0909424
6.431;0.0909424
6.432;0.0909424
6.433;0.0909424
6.434;0.0909424
6.435;0.0912476
6.436;0.0918579
6.437;0.0927734
6.438;0.0939941
6.439;0.09552
6.44;0.0970459
6.441;0.098877
6.442;0.100708
6.443;0.102539
6.444;0.10498
6.445;0.107727
6.446;0.110779
6.447;0.114441
6.448;0.118103
6.449;0.12207
6.45;0.126343
6.451;0.130615
6.452;0.134888
6.453;0.13916
6.454;0.143433
6.455;0.1474
6.456;0.151672
6.457;0.155945
6.458;0.159912
6.459;0.163879
6.46;0.167542
6.461;0.170593
6.462;0.17334
6.463;0.175781
6.464;0.178223
6.465;0.180359
6.466;0.182495
6.467;0.184326
6.468;0.186462
6.469;0.188293
6.47;0.189819
6.471;0.191345
6.472;0.192566
6.473;0.193787
6.474;0.194702
6.475;0.195923
6.476;0.197144
6.477;0.198669
6.478;0.19989
6.479;0.201416
6.48;0.202332
6.481;0.203552
6.482;0.204468
6.483;0.205994
6.484;0.20752
6.485;0.209045
6.486;0.210571
6.487;0.211792
6.488;0.212708
6.489;0.213318
6.49;0.213318
6.491;0.213013
6.492;0.212402
6.493;0.210876
6.494;0.209045
6.495;0.206909
6.496;0.204468
6.497;0.201721
6.498;0.198364
6.499;0.195007
6.5;0.19104
6.501;0.187073
6.502;0.1828
6.503;0.178528
6.504;0.17395
6.505;0.169373
6.506;0.16449
6.507;0.159912
6.508;0.155029
6.509;0.150757
6.51;0.146179
6.511;0.142212
6.512;0.137939
6.513;0.133972
6.514;0.1297
6.515;0.125427
6.516;0.121155
6.517;0.116577
6.518;0.112305
6.519;0.108032
6.52;0.10437
6.521;0.100708
6.522;0.0976562
6.523;0.0952148
6.524;0.0930786
6.525;0.0912476
6.526;0.0897217
6.527;0.088501
6.528;0.0875854
6.529;0.0872803
6.53;0.0872803
6.531;0.0881958
6.532;0.0891113
6.533;0.0900269
6.534;0.0915527
6.535;0.0927734
6.536;0.0942993
6.537;0.0958252
6.538;0.0973511
6.539;0.0985718
6.54;0.0997925
6.541;0.100403
6.542;0.101013
6.543;0.101318
6.544;0.101624
6.545;0.101929
6.546;0.102234
6.547;0.102234
6.548;0.102234
6.549;0.102234
6.55;0.102234
6.551;0.101929
6.552;0.101624
6.553;0.101318
6.554;0.101318
6.555;0.101624
6.556;0.101929
6.557;0.102539
6.558;0.102844
6.559;0.103149
6.56;0.102844
6.561;0.101624
6.562;0.0994873
6.563;0.0964355
6.564;0.0924683
6.565;0.0866699
6.566;0.0793457
6.567;0.071106
6.568;0.0616455
6.569;0.0515747
6.57;0.0411987
6.571;0.0308228
6.572;0.020752
6.573;0.0112915
6.574;0.00305176
6.575;-0.00366211
6.576;-0.00793457
6.577;-0.00976562
6.578;-0.00854492
6.579;-0.00366211
6.58;0.00488281
6.581;0.0177002
6.582;0.0354004
6.583;0.0579834
6.584;0.0866699
6.585;0.121155
6.586;0.161438
6.587;0.207825
6.588;0.26001
6.589;0.317383
6.59;0.379639
6.591;0.446167
6.592;0.516663
6.593;0.591125
6.594;0.66925
6.595;0.750732
6.596;0.834656
6.597;0.920715
6.598;1.00708
6.599;1.09283
6.6;1.17615
6.601;1.2561
6.602;1.33209
6.603;1.4032
6.604;1.46942
6.605;1.53015
6.606;1.58478
6.607;1.63269
6.608;1.67236
6.609;1.70349
6.61;1.72485
6.611;1.73584
6.612;1.73645
6.613;1.72638
6.614;1.70471
6.615;1.67206
6.616;1.6275
6.617;1.57227
6.618;1.50665
6.619;1.43219
6.62;1.34949
6.621;1.26099
6.622;1.16791
6.623;1.07239
6.624;0.975037
6.625;0.87738
6.626;0.78064
6.627;0.685425
6.628;0.593262
6.629;0.505066
6.63;0.422058
6.631;0.344849
6.632;0.274048
6.633;0.209961
6.634;0.153503
6.635;0.104675
6.636;0.0637817
6.637;0.0302124
6.638;0.00396729
6.639;-0.015564
6.64;-0.0289917
6.641;-0.0372314
6.642;-0.0408936
6.643;-0.0408936
6.644;-0.0384521
6.645;-0.0344849
6.646;-0.0292969
6.647;-0.0241089
6.648;-0.0192261
6.649;-0.0152588
6.65;-0.0119019
6.651;-0.0100708
6.652;-0.00946045
6.653;-0.00976562
6.654;-0.0109863
6.655;-0.0128174
6.656;-0.0152588
6.657;-0.0177002
6.658;-0.0204468
6.659;-0.0234985
6.66;-0.0268555
6.661;-0.0305176
6.662;-0.0344849
6.663;-0.038147
6.664;-0.0421143
6.665;-0.0457764
6.666;-0.0491333
6.667;-0.0521851
6.668;-0.0546265
6.669;-0.0564575
6.67;-0.0579834
6.671;-0.0592041
6.672;-0.0598145
6.673;-0.0601196
6.674;-0.0601196
6.675;-0.0601196
6.676;-0.0595093
6.677;-0.0585938
6.678;-0.0576782
6.679;-0.0561523
6.68;-0.0549316
6.681;-0.0534058
6.682;-0.0521851
6.683;-0.0506592
6.684;-0.0491333
6.685;-0.0476074
6.686;-0.0454712
6.687;-0.0427246
6.688;-0.039978
6.689;-0.0366211
6.69;-0.0332642
6.691;-0.0299072
6.692;-0.0271606
6.693;-0.0244141
6.694;-0.0219727
6.695;-0.0198364
6.696;-0.017395
6.697;-0.0146484
6.698;-0.0119019
6.699;-0.00946045
6.7;-0.00701904
6.701;-0.00488281
6.702;-0.00274658
6.703;-0.0012207
6.704;0
6.705;0.000915527
6.706;0.00152588
6.707;0.00183105
6.708;0.00213623
6.709;0.00244141
6.71;0.00244141
6.711;0.00244141
6.712;0.00244141
6.713;0.00213623
6.714;0.00183105
6.715;0.00183105
6.716;0.00183105
6.717;0.00244141
6.718;0.00305176
6.719;0.00366211
6.72;0.00427246
6.721;0.00457764
6.722;0.00518799
6.723;0.00579834
6.724;0.00610352
6.725;0.00671387
6.726;0.00732422
6.727;0.00793457
6.728;0.00854492
6.729;0.00946045
6.73;0.010376
6.731;0.0112915
6.732;0.012207
6.733;0.0131226
6.734;0.0137329
6.735;0.0146484
6.736;0.0158691
6.737;0.0167847
6.738;0.0180054
6.739;0.0189209
6.74;0.0201416
6.741;0.0213623
6.742;0.0228882
6.743;0.0247192
6.744;0.0265503
6.745;0.0286865
6.746;0.0308228
6.747;0.032959
6.748;0.0350952
6.749;0.0375366
6.75;0.039978
6.751;0.0421143
6.752;0.0445557
6.753;0.0466919
6.754;0.0488281
6.755;0.0509644
6.756;0.0534058
6.757;0.055542
6.758;0.0579834
6.759;0.0598145
6.76;0.0616455
6.761;0.0631714
6.762;0.0646973
6.763;0.065918
6.764;0.0671387
6.765;0.0683594
6.766;0.0695801
6.767;0.0708008
6.768;0.0720215
6.769;0.0735474
6.77;0.0750732
6.771;0.0765991
6.772;0.0784302
6.773;0.0799561
6.774;0.0817871
6.775;0.0836182
6.776;0.0857544
6.777;0.0881958
6.778;0.0909424
6.779;0.093689
6.78;0.0967407
6.781;0.0997925
6.782;0.103149
6.783;0.106812
6.784;0.110474
6.785;0.114441
6.786;0.118408
6.787;0.12207
6.788;0.125732
6.789;0.128784
6.79;0.131531
6.791;0.134277
6.792;0.136414
6.793;0.13855
6.794;0.140381
6.795;0.141907
6.796;0.143433
6.797;0.144653
6.798;0.145569
6.799;0.145874
6.8;0.146179
6.801;0.145874
6.802;0.145569
6.803;0.144958
6.804;0.144348
6.805;0.143433
6.806;0.142822
6.807;0.142212
6.808;0.141602
6.809;0.141602
6.81;0.141602
6.811;0.141602
6.812;0.141907
6.813;0.142517
6.814;0.143433
6.815;0.144653
6.816;0.146179
6.817;0.147705
6.818;0.149231
6.819;0.150757
6.82;0.152588
6.821;0.154114
6.822;0.155945
6.823;0.157776
6.824;0.159607
6.825;0.161438
6.826;0.163269
6.827;0.164795
6.828;0.166321
6.829;0.167847
6.83;0.169373
6.831;0.171204
6.832;0.172729
6.833;0.174255
6.834;0.175781
6.835;0.177307
6.836;0.178528
6.837;0.179443
6.838;0.180054
6.839;0.180359
6.84;0.180359
6.841;0.180359
6.842;0.180359
6.843;0.180664
6.844;0.180664
6.845;0.180359
6.846;0.180054
6.847;0.178833
6.848;0.177612
6.849;0.175476
6.85;0.173035
6.851;0.170288
6.852;0.166931
6.853;0.163269
6.854;0.159607
6.855;0.15625
6.856;0.152893
6.857;0.150146
6.858;0.1474
6.859;0.144958
6.86;0.142822
6.861;0.140991
6.862;0.139465
6.863;0.137939
6.864;0.137024
6.865;0.136108
6.866;0.135498
6.867;0.135193
6.868;0.134583
6.869;0.134277
6.87;0.133667
6.871;0.133057
6.872;0.132446
6.873;0.131836
6.874;0.13092
6.875;0.13031
6.876;0.1297
6.877;0.128784
6.878;0.127869
6.879;0.126343
6.88;0.124512
6.881;0.122681
6.882;0.120544
6.883;0.118408
6.884;0.116272
6.885;0.114441
6.886;0.11261
6.887;0.111389
6.888;0.109863
6.889;0.108948
6.89;0.108337
6.891;0.108032
6.892;0.108032
6.893;0.108032
6.894;0.108643
6.895;0.109253
6.896;0.110168
6.897;0.111084
6.898;0.112305
6.899;0.11322
6.9;0.114441
6.901;0.115051
6.902;0.115967
6.903;0.116882
6.904;0.117493
6.905;0.118408
6.906;0.119324
6.907;0.119934
6.908;0.12085
6.909;0.12146
6.91;0.122375
6.911;0.123291
6.912;0.123901
6.913;0.124512
6.914;0.124817
6.915;0.125122
6.916;0.125122
6.917;0.125122
6.918;0.125122
6.919;0.124512
6.92;0.124207
6.921;0.123596
6.922;0.122986
6.923;0.122375
6.924;0.121765
6.925;0.121155
6.926;0.120544
6.927;0.119934
6.928;0.119324
6.929;0.118713
6.93;0.118103
6.931;0.117798
6.932;0.117798
6.933;0.117798
6.934;0.118408
6.935;0.119324
6.936;0.120544
6.937;0.12207
6.938;0.124207
6.939;0.126343
6.94;0.128784
6.941;0.131226
6.942;0.133667
6.943;0.136414
6.944;0.138855
6.945;0.141602
6.946;0.144348
6.947;0.147095
6.948;0.150146
6.949;0.153503
6.95;0.156555
6.951;0.159607
6.952;0.162354
6.953;0.16449
6.954;0.166016
6.955;0.166931
6.956;0.167847
6.957;0.168457
6.958;0.168457
6.959;0.168457
6.96;0.168457
6.961;0.168152
6.962;0.167847
6.963;0.167542
6.964;0.166931
6.965;0.166626
6.966;0.166016
6.967;0.165405
6.968;0.1651
6.969;0.164795
6.97;0.164795
6.971;0.1651
6.972;0.16571
6.973;0.166626
6.974;0.167542
6.975;0.168762
6.976;0.170288
6.977;0.171814
6.978;0.173645
6.979;0.175476
6.98;0.177002
6.981;0.178223
6.982;0.179749
6.983;0.181274
6.984;0.182495
6.985;0.183716
6.986;0.184326
6.987;0.184937
6.988;0.184631
6.989;0.184021
6.99;0.183105
6.991;0.181885
6.992;0.180054
6.993;0.178223
6.994;0.176086
6.995;0.17395
6.996;0.171814
6.997;0.169678
6.998;0.167542
6.999;0.165405
7;0.163269
7.001;0.161438
7.002;0.159302
7.003;0.157471
7.004;0.15564
7.005;0.153503
7.006;0.151672
7.007;0.149841
7.008;0.14801
7.009;0.146179
7.01;0.144653
7.011;0.143433
7.012;0.142212
7.013;0.140991
7.014;0.139771
7.015;0.13855
7.016;0.137329
7.017;0.136108
7.018;0.134583
7.019;0.133362
7.02;0.131836
7.021;0.13092
7.022;0.13031
7.023;0.1297
7.024;0.129395
7.025;0.129089
7.026;0.129089
7.027;0.129089
7.028;0.129089
7.029;0.129089
7.03;0.129089
7.031;0.128784
7.032;0.128174
7.033;0.127563
7.034;0.126648
7.035;0.126038
7.036;0.125427
7.037;0.125122
7.038;0.125122
7.039;0.125122
7.04;0.125427
7.041;0.126038
7.042;0.126953
7.043;0.127869
7.044;0.128479
7.045;0.129395
7.046;0.130005
7.047;0.13031
7.048;0.13031
7.049;0.13031
7.05;0.130005
7.051;0.1297
7.052;0.129395
7.053;0.128784
7.054;0.127869
7.055;0.127258
7.056;0.126343
7.057;0.125427
7.058;0.123901
7.059;0.12207
7.06;0.119934
7.061;0.117188
7.062;0.114441
7.063;0.111694
7.064;0.108643
7.065;0.105896
7.066;0.103149
7.067;0.100708
7.068;0.098877
7.069;0.0973511
7.07;0.0964355
7.071;0.0961304
7.072;0.0958252
7.073;0.0958252
7.074;0.0961304
7.075;0.0964355
7.076;0.0973511
7.077;0.0985718
7.078;0.100098
7.079;0.101624
7.08;0.102844
7.081;0.10437
7.082;0.105591
7.083;0.106506
7.084;0.107422
7.085;0.107727
7.086;0.107727
7.087;0.107422
7.088;0.106506
7.089;0.104675
7.09;0.102539
7.091;0.0997925
7.092;0.0967407
7.093;0.0933838
7.094;0.0900269
7.095;0.0866699
7.096;0.0836182
7.097;0.0811768
7.098;0.0787354
7.099;0.0762939
7.1;0.0741577
7.101;0.0723267
7.102;0.071106
7.103;0.0701904
7.104;0.0698853
7.105;0.0701904
7.106;0.0708008
7.107;0.0723267
7.108;0.0738525
7.109;0.0759888
7.11;0.0784302
7.111;0.0811768
7.112;0.0839233
7.113;0.0866699
7.114;0.0897217
7.115;0.0930786
7.116;0.0964355
7.117;0.100098
7.118;0.10376
7.119;0.107117
7.12;0.110168
7.121;0.112915
7.122;0.115662
7.123;0.118408
7.124;0.12146
7.125;0.124207
7.126;0.126953
7.127;0.130005
7.128;0.133057
7.129;0.136414
7.13;0.139771
7.131;0.143127
7.132;0.146179
7.133;0.149231
7.134;0.151672
7.135;0.154114
7.136;0.15625
7.137;0.157776
7.138;0.158997
7.139;0.159912
7.14;0.160522
7.141;0.161133
7.142;0.162048
7.143;0.162964
7.144;0.163879
7.145;0.1651
7.146;0.166626
7.147;0.168457
7.148;0.170593
7.149;0.17395
7.15;0.177612
7.151;0.181885
7.152;0.186462
7.153;0.190735
7.154;0.194702
7.155;0.198364
7.156;0.202026
7.157;0.205994
7.158;0.209656
7.159;0.212708
7.16;0.215454
7.161;0.217285
7.162;0.218201
7.163;0.218811
7.164;0.218506
