ECG13.txt

78.666667
58.838983
221.949153
84.627119
###BEGIN DATA WAVES
1168.000000 -0.057678 1246.000000 -0.463867 1273.000000 1.411740 1299.000000 -0.719910 1570.000000 -0.035400
1570.000000 -0.035400 1647.000000 -0.447693 1675.000000 1.516420 1701.000000 -0.704956 1978.000000 -0.043640
1978.000000 -0.043640 2057.000000 -0.424805 2085.000000 1.540220 2111.000000 -0.711365 2398.000000 0.005493
2398.000000 0.005493 2475.000000 -0.422058 2503.000000 1.566770 2528.000000 -0.702209 2676.000000 -0.027161
2821.000000 -0.043945 2900.000000 -0.475159 2929.000000 1.433720 2955.000000 -0.842285 3103.000000 -0.301208
4042.000000 -0.259399 4043.000000 -0.255737 4192.000000 1.453860 4219.000000 -0.434875 4499.000000 0.680542
4499.000000 0.680542 4578.000000 0.364380 4607.000000 2.034300 4633.000000 0.101013 4917.000000 0.850525
4917.000000 0.850525 4993.000000 0.470886 5022.000000 2.234190 5048.000000 0.137634 5206.000000 0.785522
5325.000000 0.745850 5409.000000 0.314026 5438.000000 2.224730 5464.000000 -0.008850 5618.000000 0.609436
5749.000000 0.589600 5828.000000 0.168152 5857.000000 2.100830 5883.000000 -0.155640 6037.000000 0.429993
6173.000000 0.364075 6252.000000 -0.083008 6280.000000 1.835630 6306.000000 -0.425415 6457.000000 0.175781
6600.000000 0.068054 6679.000000 -0.324707 6708.000000 1.506350 6734.000000 -0.682983 6884.000000 -0.030823
9106.000000 0.012512 9184.000000 -0.358582 9213.000000 1.439210 9239.000000 -0.679932 9528.000000 -0.097656
9528.000000 -0.097656 9612.000000 -0.478516 9641.000000 1.425170 9667.000000 -0.903015 9823.000000 -0.307007
10436.000000 -0.194092 10516.000000 -0.428162 10546.000000 1.409610 10572.000000 -0.765076 10733.000000 0.100708
10914.000000 0.299683 10993.000000 0.075989 11023.000000 1.812740 11049.000000 -0.229492 11206.000000 0.574341
11381.000000 0.643311 11462.000000 0.365295 11492.000000 1.989440 11518.000000 -0.002747 11670.000000 0.744934
11837.000000 0.710449 11918.000000 0.338440 11946.000000 1.891480 11974.000000 -0.008850 12125.000000 0.580750
12276.000000 0.484619 12360.000000 0.100098 12389.000000 1.596680 12417.000000 -0.262146 12565.000000 0.294189
13570.000000 0.172424 13649.000000 -0.143127 13679.000000 1.376650 13707.000000 -0.443420 14001.000000 0.224609
14001.000000 0.224609 14081.000000 -0.101013 14110.000000 1.582950 14136.000000 -0.416870 14289.000000 0.146484
14435.000000 0.130920 14520.000000 -0.260925 14550.000000 1.505740 14576.000000 -0.664978 14686.000000 -0.223389
15850.000000 0.112610 15929.000000 -0.141602 15959.000000 1.622620 15986.000000 -0.448914 16137.000000 0.353699
16334.000000 0.432434 16416.000000 0.195923 16446.000000 1.811220 16473.000000 -0.162048 16620.000000 0.649109
16802.000000 0.677490 16884.000000 0.343628 16912.000000 1.915590 16940.000000 0.016785 17086.000000 0.715332
17259.000000 0.682983 17338.000000 0.362549 17367.000000 1.819760 17396.000000 0.009155 17550.000000 0.616760
17700.000000 0.560608 17781.000000 0.209351 17810.000000 1.657410 17838.000000 -0.121460 17995.000000 0.418396
18132.000000 0.404053 18220.000000 0.060120 18250.000000 1.570130 18277.000000 -0.292053 18574.000000 0.243835
18574.000000 0.243835 18660.000000 -0.112610 18690.000000 1.600650 18717.000000 -0.471191 18865.000000 0.116882
19027.000000 0.104980 19113.000000 -0.230408 19142.000000 1.640010 19168.000000 -0.608215 19323.000000 0.014038
19498.000000 0.054932 19580.000000 -0.333252 19609.000000 1.543270 19635.000000 -0.679321 19794.000000 -0.047607
19999.000000 0.003052 20081.000000 -0.304565 20110.000000 1.387630 20137.000000 -0.668335 20289.000000 -0.045166
22228.000000 0.184937 22310.000000 -0.105286 22339.000000 1.379390 22367.000000 -0.448303 22662.000000 0.188293
22662.000000 0.188293 22743.000000 -0.128784 22773.000000 1.493840 22801.000000 -0.492249 23098.000000 0.184021
23098.000000 0.184021 23183.000000 -0.167236 23213.000000 1.662900 23240.000000 -0.528870 23539.000000 0.132751
23556.000000 0.213318 23638.000000 -0.081177 23668.000000 1.836550 23695.000000 -0.442810 23840.000000 0.236816
24037.000000 0.318298 24122.000000 -0.005188 24152.000000 1.815800 24178.000000 -0.376282 24301.000000 0.205078
26996.000000 0.141296 27080.000000 -0.131531 27110.000000 1.473390 27138.000000 -0.469055 27272.000000 0.148010
27465.000000 0.197144 27549.000000 -0.075684 27579.000000 1.705020 27605.000000 -0.474243 27751.000000 0.140076
27952.000000 0.140076 28039.000000 -0.206909 28068.000000 1.568910 28095.000000 -0.628662 28250.000000 0.007324
28474.000000 -0.010071 28559.000000 -0.346069 28588.000000 1.351010 28616.000000 -0.726013 28768.000000 -0.003052
28993.000000 0.079651 29079.000000 -0.174561 29109.000000 1.409910 29137.000000 -0.516968 29291.000000 0.231934
29477.000000 0.272217 29560.000000 0.006714 29590.000000 1.540530 29618.000000 -0.348816 29761.000000 0.374146
29938.000000 0.364380 30025.000000 0.053711 30055.000000 1.517030 30084.000000 -0.291748 30244.000000 0.358276
30394.000000 0.300903 30477.000000 -0.008545 30506.000000 1.430660 30534.000000 -0.384521 30668.000000 0.169983
31274.000000 0.026550 31360.000000 -0.307617 31389.000000 1.348570 31417.000000 -0.625305 31712.000000 0.023498
31712.000000 0.023498 31805.000000 -0.276184 31835.000000 1.510310 31862.000000 -0.632629 32020.000000 0.011902
32176.000000 -0.009155 32264.000000 -0.349426 32294.000000 1.508790 32321.000000 -0.744629 32465.000000 -0.157776
34070.000000 0.276184 34149.000000 0.135498 34180.000000 1.603390 34209.000000 -0.196838 34357.000000 0.503540
34578.000000 0.490723 34660.000000 0.230408 34691.000000 1.521300 34721.000000 -0.136108 34863.000000 0.448914
35031.000000 0.374451 35118.000000 0.042419 35147.000000 1.480410 35176.000000 -0.278015 35331.000000 0.299988
35493.000000 0.285339 35579.000000 0.010681 35609.000000 1.493840 35638.000000 -0.288696 35768.000000 0.308533
35970.000000 0.317078 36057.000000 0.016785 36087.000000 1.658330 36115.000000 -0.360413 36250.000000 0.286560
36482.000000 0.257263 36568.000000 -0.041809 36598.000000 1.719360 36625.000000 -0.460815 36770.000000 0.197144
37278.000000 0.017090 37355.000000 -0.219421 37386.000000 1.514890 37414.000000 -0.601501 37576.000000 -0.032044
39072.000000 0.197144 39159.000000 -0.078125 39189.000000 1.374510 39218.000000 -0.393677 39371.000000 0.354614
39531.000000 0.390930 39617.000000 0.060425 39647.000000 1.620790 39675.000000 -0.270386 39805.000000 0.403137
39992.000000 0.368652 40075.000000 0.032044 40106.000000 1.665340 40134.000000 -0.349731 40270.000000 0.299377
40450.000000 0.244141 40537.000000 -0.127563 40567.000000 1.645510 40595.000000 -0.522461 40741.000000 0.096435
40931.000000 -0.016785 41022.000000 -0.393982 41051.000000 1.380000 41079.000000 -0.809326 41208.000000 -0.213623
42246.000000 -0.056458 42322.000000 -0.281372 42353.000000 1.450200 42381.000000 -0.638428 42542.000000 0.155945
42871.000000 0.217590 42947.000000 0.018005 42979.000000 1.549990 43008.000000 -0.356140 43152.000000 0.329590
44778.000000 0.125732 44867.000000 -0.132751 44897.000000 1.686100 44924.000000 -0.419617 45072.000000 0.337830
45274.000000 0.382996 45361.000000 0.060425 45391.000000 1.934200 45418.000000 -0.281372 45568.000000 0.410461
45862.000000 0.385437 45947.000000 0.094299 45978.000000 1.824650 46005.000000 -0.286560 46154.000000 0.371704
46594.000000 0.271301 46671.000000 -0.023193 46702.000000 1.719060 46731.000000 -0.425415 46889.000000 0.269775
47183.000000 0.150146 47268.000000 -0.100403 47300.000000 1.438600 47330.000000 -0.458984 47487.000000 0.233154
49560.000000 0.121460 49648.000000 -0.183411 49678.000000 1.624760 49705.000000 -0.513000 49845.000000 0.242310
50077.000000 0.243530 50166.000000 -0.104980 50196.000000 1.647030 50223.000000 -0.521851 50358.000000 0.109863
50844.000000 -0.097351 50917.000000 -0.293884 50948.000000 1.533810 50977.000000 -0.643921 51127.000000 0.106506
51542.000000 0.260620 51621.000000 0.034790 51652.000000 1.707460 51681.000000 -0.266113 51827.000000 0.502014
52112.000000 0.483398 52199.000000 0.254822 52229.000000 1.718140 52259.000000 -0.083313 52389.000000 0.571899
52595.000000 0.480957 52686.000000 0.171509 52716.000000 1.589970 52745.000000 -0.206604 52885.000000 0.403442
53062.000000 0.267944 53154.000000 -0.054627 53183.000000 1.440120 53212.000000 -0.455933 53351.000000 0.180969
53539.000000 0.061951 53626.000000 -0.262451 53656.000000 1.451720 53685.000000 -0.625305 53819.000000 0.003662
54035.000000 -0.051270 54125.000000 -0.370483 54155.000000 1.453550 54183.000000 -0.761719 54334.000000 -0.070190
54764.000000 -0.224915 54850.000000 -0.461731 54881.000000 1.351930 54909.000000 -0.861816 55059.000000 -0.174866
55518.000000 -0.207520 55594.000000 -0.440369 55625.000000 1.387630 55654.000000 -0.772705 55802.000000 -0.073853
56222.000000 -0.034790 56302.000000 -0.274658 56334.000000 1.383670 56364.000000 -0.632019 56512.000000 0.126038
58833.000000 -0.116272 58922.000000 -0.382996 58953.000000 1.372990 58981.000000 -0.701599 59122.000000 0.107727
59590.000000 0.384216 59672.000000 0.198059 59703.000000 2.100830 59731.000000 -0.156860 59874.000000 0.592041
60330.000000 0.405884 60414.000000 0.098877 60445.000000 1.970210 60474.000000 -0.317383 60622.000000 0.285950
61010.000000 0.115662 61092.000000 -0.119934 61122.000000 1.652830 61151.000000 -0.497437 61296.000000 0.279541
61603.000000 0.259094 61691.000000 0.001221 61722.000000 1.551510 61752.000000 -0.357361 61896.000000 0.383606
62115.000000 0.252380 62205.000000 -0.083008 62235.000000 1.412050 62265.000000 -0.488586 62402.000000 0.162964
63552.000000 0.198669 63642.000000 -0.063171 63673.000000 1.679080 63701.000000 -0.428162 63845.000000 0.363159
64063.000000 0.388184 64153.000000 0.093079 64183.000000 1.926270 64211.000000 -0.271301 64349.000000 0.453796
64646.000000 0.402222 64739.000000 0.070496 64770.000000 1.916500 64798.000000 -0.317688 64947.000000 0.333862
65439.000000 0.096741 65532.000000 -0.157166 65563.000000 1.669620 65592.000000 -0.566406 65758.000000 0.123901
66166.000000 -0.067749 66249.000000 -0.338745 66280.000000 1.383970 66309.000000 -0.723877 66463.000000 -0.003662
69151.000000 -0.066834 69244.000000 -0.350037 69275.000000 1.508480 69303.000000 -0.722961 69449.000000 0.062256
69663.000000 0.116882 69758.000000 -0.207520 69788.000000 1.753230 69816.000000 -0.575867 69966.000000 0.144043
70436.000000 0.035400 70514.000000 -0.197754 70546.000000 1.702580 70574.000000 -0.588074 70716.000000 0.114441
71147.000000 -0.006409 71229.000000 -0.250549 71261.000000 1.600650 71290.000000 -0.591736 71434.000000 0.121155
71780.000000 0.136719 71862.000000 -0.107727 71893.000000 1.502690 71923.000000 -0.473022 72080.000000 0.336914
72308.000000 0.357361 72398.000000 0.111389 72428.000000 1.602170 72458.000000 -0.264587 72600.000000 0.538025
72791.000000 0.451965 72881.000000 0.108948 72912.000000 1.730960 72941.000000 -0.246277 73091.000000 0.450439
73270.000000 0.341492 73364.000000 -0.012207 73394.000000 1.588750 73423.000000 -0.405579 73557.000000 0.168762
73754.000000 0.061645 73851.000000 -0.314331 73881.000000 1.411740 73910.000000 -0.708313 74054.000000 -0.035095
74260.000000 -0.030518 74352.000000 -0.353088 74383.000000 1.520390 74410.000000 -0.752563 74551.000000 0.033264
74785.000000 0.079651 74877.000000 -0.238037 74908.000000 1.689150 74935.000000 -0.581970 75100.000000 0.169067
75322.000000 0.123596 75421.000000 -0.221558 75451.000000 1.565250 75479.000000 -0.622864 75638.000000 0.113831
76396.000000 0.112915 76485.000000 -0.200806 76515.000000 1.378170 76544.000000 -0.539246 76697.000000 0.261230
76893.000000 0.152283 76982.000000 -0.112915 77012.000000 1.377260 77041.000000 -0.484009 77195.000000 0.253601
77864.000000 0.048218 77956.000000 -0.308228 77986.000000 1.408080 78014.000000 -0.646362 78164.000000 -0.013733
78356.000000 -0.060425 78450.000000 -0.419922 78481.000000 1.489560 78508.000000 -0.810852 78670.000000 -0.125427
78870.000000 -0.114136 78963.000000 -0.467224 78993.000000 1.448360 79020.000000 -0.846558 79183.000000 -0.048828
79418.000000 -0.010071 79507.000000 -0.288391 79537.000000 1.499630 79565.000000 -0.653381 79720.000000 0.123901
80001.000000 0.148926 80092.000000 -0.177307 80122.000000 1.602480 80150.000000 -0.552673 80313.000000 0.232239
80560.000000 0.151978 80649.000000 -0.169067 80679.000000 1.500240 80708.000000 -0.566406 80863.000000 0.198975
82561.000000 -0.180359 82656.000000 -0.493469 82687.000000 1.373600 82714.000000 -0.868530 82881.000000 -0.148010
83071.000000 -0.179138 83162.000000 -0.527954 83193.000000 1.452030 83220.000000 -0.881958 83369.000000 -0.196228
84243.000000 -0.126648 84331.000000 -0.400391 84362.000000 1.341550 84391.000000 -0.797119 84549.000000 -0.043030
85963.000000 0.145569 86055.000000 -0.167236 86086.000000 1.397710 86116.000000 -0.529175 86267.000000 0.201416
86476.000000 0.149536 86570.000000 -0.189514 86601.000000 1.626890 86629.000000 -0.539551 86784.000000 0.231018
87000.000000 0.248108 87099.000000 -0.083618 87130.000000 1.820070 87157.000000 -0.418701 87321.000000 0.340271
87619.000000 0.302429 87708.000000 -0.001221 87739.000000 1.843260 87767.000000 -0.397644 87942.000000 0.335693
88255.000000 0.351868 88342.000000 0.009155 88372.000000 1.783140 88401.000000 -0.400391 88569.000000 0.377197
###END DATA WAVES
###BEGIN DATA HEARTBEAT
84.000000
84.000000
96.000000
108.000000
72.000000
72.000000
84.000000
84.000000
72.000000
60.000000
108.000000
48.000000
84.000000
48.000000
108.000000
84.000000
60.000000
###END DATA HEARTBEAT
###BEGIN PAS
5.000000
###END PAS
