0;0.0256348
0.001;0.0253296
0.002;0.0244141
0.003;0.0231934
0.004;0.0219727
0.005;0.0210571
0.006;0.0198364
0.007;0.0183105
0.008;0.0158691
0.009;0.0128174
0.01;0.00976562
0.011;0.00640869
0.012;0.00366211
0.013;0.0012207
0.014;-0.000610352
0.015;-0.00183105
0.016;-0.00244141
0.017;-0.00335693
0.018;-0.00396729
0.019;-0.00488281
0.02;-0.00579834
0.021;-0.00640869
0.022;-0.00701904
0.023;-0.00762939
0.024;-0.00854492
0.025;-0.0100708
0.026;-0.0115967
0.027;-0.0134277
0.028;-0.0149536
0.029;-0.0161743
0.03;-0.0170898
0.031;-0.0180054
0.032;-0.0186157
0.033;-0.0195312
0.034;-0.0204468
0.035;-0.0216675
0.036;-0.0231934
0.037;-0.0247192
0.038;-0.0265503
0.039;-0.0283813
0.04;-0.0296021
0.041;-0.0305176
0.042;-0.0308228
0.043;-0.0305176
0.044;-0.0299072
0.045;-0.0289917
0.046;-0.0280762
0.047;-0.027771
0.048;-0.0280762
0.049;-0.0292969
0.05;-0.0311279
0.051;-0.0332642
0.052;-0.0354004
0.053;-0.0372314
0.054;-0.0387573
0.055;-0.039978
0.056;-0.0411987
0.057;-0.0424194
0.058;-0.0439453
0.059;-0.0454712
0.06;-0.0463867
0.061;-0.0466919
0.062;-0.0466919
0.063;-0.0466919
0.064;-0.0466919
0.065;-0.0466919
0.066;-0.0469971
0.067;-0.0469971
0.068;-0.0466919
0.069;-0.0460815
0.07;-0.0448608
0.071;-0.0436401
0.072;-0.0418091
0.073;-0.039978
0.074;-0.0384521
0.075;-0.0369263
0.076;-0.0357056
0.077;-0.03479
0.078;-0.0338745
0.079;-0.032959
0.08;-0.0323486
0.081;-0.0320435
0.082;-0.0317383
0.083;-0.0314331
0.084;-0.0314331
0.085;-0.0314331
0.086;-0.0317383
0.087;-0.0320435
0.088;-0.0320435
0.089;-0.0317383
0.09;-0.0314331
0.091;-0.0311279
0.092;-0.0314331
0.093;-0.0320435
0.094;-0.0326538
0.095;-0.0335693
0.096;-0.0344849
0.097;-0.0354004
0.098;-0.0366211
0.099;-0.0378418
0.1;-0.0393677
0.101;-0.0405884
0.102;-0.0418091
0.103;-0.0424194
0.104;-0.043335
0.105;-0.0442505
0.106;-0.0460815
0.107;-0.0485229
0.108;-0.0506592
0.109;-0.0524902
0.11;-0.0537109
0.111;-0.0540161
0.112;-0.0534058
0.113;-0.0521851
0.114;-0.0509644
0.115;-0.0491333
0.116;-0.0473022
0.117;-0.0454712
0.118;-0.043335
0.119;-0.0411987
0.12;-0.0387573
0.121;-0.0363159
0.122;-0.0341797
0.123;-0.032959
0.124;-0.0326538
0.125;-0.0326538
0.126;-0.032959
0.127;-0.0323486
0.128;-0.0311279
0.129;-0.0292969
0.13;-0.0274658
0.131;-0.0256348
0.132;-0.0244141
0.133;-0.0238037
0.134;-0.0234985
0.135;-0.0234985
0.136;-0.0238037
0.137;-0.0241089
0.138;-0.0247192
0.139;-0.0247192
0.14;-0.0247192
0.141;-0.0247192
0.142;-0.0247192
0.143;-0.0250244
0.144;-0.0250244
0.145;-0.0250244
0.146;-0.0250244
0.147;-0.0244141
0.148;-0.0231934
0.149;-0.0216675
0.15;-0.0204468
0.151;-0.0201416
0.152;-0.0201416
0.153;-0.0204468
0.154;-0.0210571
0.155;-0.0216675
0.156;-0.0219727
0.157;-0.0216675
0.158;-0.0204468
0.159;-0.0186157
0.16;-0.0161743
0.161;-0.0134277
0.162;-0.0109863
0.163;-0.00793457
0.164;-0.00518799
0.165;-0.00244141
0.166;0.000305176
0.167;0.00274658
0.168;0.00488281
0.169;0.00640869
0.17;0.00762939
0.171;0.0088501
0.172;0.0100708
0.173;0.0109863
0.174;0.0115967
0.175;0.0119019
0.176;0.0119019
0.177;0.0115967
0.178;0.0109863
0.179;0.0100708
0.18;0.00946045
0.181;0.0088501
0.182;0.00854492
0.183;0.00823975
0.184;0.00823975
0.185;0.00793457
0.186;0.00732422
0.187;0.00640869
0.188;0.00518799
0.189;0.00396729
0.19;0.00244141
0.191;0.00152588
0.192;0.000915527
0.193;0.000915527
0.194;0.00152588
0.195;0.00274658
0.196;0.00488281
0.197;0.00701904
0.198;0.00976562
0.199;0.0128174
0.2;0.0158691
0.201;0.0192261
0.202;0.0222778
0.203;0.0253296
0.204;0.0283813
0.205;0.0314331
0.206;0.03479
0.207;0.038147
0.208;0.0415039
0.209;0.0445557
0.21;0.0473022
0.211;0.0497437
0.212;0.0518799
0.213;0.0537109
0.214;0.055542
0.215;0.0567627
0.216;0.0570679
0.217;0.0570679
0.218;0.0567627
0.219;0.0561523
0.22;0.0552368
0.221;0.0543213
0.222;0.0534058
0.223;0.0524902
0.224;0.0515747
0.225;0.0506592
0.226;0.0500488
0.227;0.0497437
0.228;0.0500488
0.229;0.050354
0.23;0.0506592
0.231;0.0515747
0.232;0.0527954
0.233;0.0546265
0.234;0.0564575
0.235;0.0588989
0.236;0.0613403
0.237;0.0637817
0.238;0.0665283
0.239;0.0689697
0.24;0.0708008
0.241;0.0726318
0.242;0.0741577
0.243;0.0753784
0.244;0.0765991
0.245;0.0775146
0.246;0.0784302
0.247;0.0790405
0.248;0.0796509
0.249;0.0802612
0.25;0.0811768
0.251;0.0817871
0.252;0.0823975
0.253;0.0823975
0.254;0.0820923
0.255;0.0817871
0.256;0.0808716
0.257;0.0799561
0.258;0.0787354
0.259;0.0772095
0.26;0.0750732
0.261;0.0726318
0.262;0.0695801
0.263;0.0671387
0.264;0.0653076
0.265;0.0643921
0.266;0.0643921
0.267;0.0646973
0.268;0.0656128
0.269;0.0671387
0.27;0.0689697
0.271;0.0708008
0.272;0.072937
0.273;0.0747681
0.274;0.0762939
0.275;0.0775146
0.276;0.0787354
0.277;0.0793457
0.278;0.0802612
0.279;0.0811768
0.28;0.0823975
0.281;0.0836182
0.282;0.0848389
0.283;0.0857544
0.284;0.0866699
0.285;0.0866699
0.286;0.0863647
0.287;0.0854492
0.288;0.0836182
0.289;0.0814819
0.29;0.0787354
0.291;0.0759888
0.292;0.0723267
0.293;0.0686646
0.294;0.0646973
0.295;0.0610352
0.296;0.057373
0.297;0.0543213
0.298;0.0521851
0.299;0.0509644
0.3;0.0500488
0.301;0.0500488
0.302;0.050354
0.303;0.0512695
0.304;0.0521851
0.305;0.0534058
0.306;0.0543213
0.307;0.055542
0.308;0.0567627
0.309;0.0582886
0.31;0.0598145
0.311;0.0616455
0.312;0.0634766
0.313;0.0653076
0.314;0.0668335
0.315;0.067749
0.316;0.0680542
0.317;0.0680542
0.318;0.0674438
0.319;0.0665283
0.32;0.0650024
0.321;0.0628662
0.322;0.0601196
0.323;0.057373
0.324;0.0540161
0.325;0.0506592
0.326;0.0473022
0.327;0.0442505
0.328;0.0415039
0.329;0.0396729
0.33;0.0384521
0.331;0.038147
0.332;0.038147
0.333;0.0387573
0.334;0.0390625
0.335;0.0393677
0.336;0.0396729
0.337;0.039978
0.338;0.0405884
0.339;0.0421143
0.34;0.0442505
0.341;0.0469971
0.342;0.0500488
0.343;0.0531006
0.344;0.0558472
0.345;0.0576782
0.346;0.0592041
0.347;0.0598145
0.348;0.0595093
0.349;0.0585938
0.35;0.0567627
0.351;0.0546265
0.352;0.0527954
0.353;0.0512695
0.354;0.050354
0.355;0.0494385
0.356;0.0488281
0.357;0.0479126
0.358;0.0473022
0.359;0.0466919
0.36;0.0457764
0.361;0.0454712
0.362;0.045166
0.363;0.045166
0.364;0.0457764
0.365;0.0466919
0.366;0.0482178
0.367;0.0497437
0.368;0.0512695
0.369;0.0524902
0.37;0.0534058
0.371;0.0534058
0.372;0.0521851
0.373;0.050354
0.374;0.0479126
0.375;0.0454712
0.376;0.0436401
0.377;0.0421143
0.378;0.0408936
0.379;0.0393677
0.38;0.0375366
0.381;0.0354004
0.382;0.0326538
0.383;0.0292969
0.384;0.0259399
0.385;0.0228882
0.386;0.0204468
0.387;0.0183105
0.388;0.0167847
0.389;0.015564
0.39;0.0149536
0.391;0.0143433
0.392;0.0143433
0.393;0.0146484
0.394;0.0152588
0.395;0.0161743
0.396;0.017395
0.397;0.0183105
0.398;0.0189209
0.399;0.0192261
0.4;0.0189209
0.401;0.0177002
0.402;0.0158691
0.403;0.0131226
0.404;0.0100708
0.405;0.00640869
0.406;0.00244141
0.407;-0.00152588
0.408;-0.00610352
0.409;-0.010376
0.41;-0.0143433
0.411;-0.0183105
0.412;-0.0222778
0.413;-0.0262451
0.414;-0.0302124
0.415;-0.0341797
0.416;-0.0384521
0.417;-0.0424194
0.418;-0.0460815
0.419;-0.0488281
0.42;-0.0509644
0.421;-0.0518799
0.422;-0.0521851
0.423;-0.0515747
0.424;-0.0506592
0.425;-0.050354
0.426;-0.050354
0.427;-0.0509644
0.428;-0.0518799
0.429;-0.0521851
0.43;-0.0518799
0.431;-0.0509644
0.432;-0.0494385
0.433;-0.0476074
0.434;-0.0460815
0.435;-0.0445557
0.436;-0.043335
0.437;-0.0427246
0.438;-0.0424194
0.439;-0.0424194
0.44;-0.0424194
0.441;-0.0421143
0.442;-0.0415039
0.443;-0.0402832
0.444;-0.0387573
0.445;-0.0369263
0.446;-0.0354004
0.447;-0.0341797
0.448;-0.032959
0.449;-0.0317383
0.45;-0.0305176
0.451;-0.0286865
0.452;-0.0265503
0.453;-0.0238037
0.454;-0.0204468
0.455;-0.0170898
0.456;-0.0134277
0.457;-0.00976562
0.458;-0.00518799
0.459;-0.000305176
0.46;0.00610352
0.461;0.0140381
0.462;0.0244141
0.463;0.0375366
0.464;0.0534058
0.465;0.0723267
0.466;0.093689
0.467;0.117493
0.468;0.144043
0.469;0.173645
0.47;0.205994
0.471;0.24231
0.472;0.282898
0.473;0.327454
0.474;0.376587
0.475;0.430298
0.476;0.488892
0.477;0.552063
0.478;0.619507
0.479;0.690308
0.48;0.763245
0.481;0.837708
0.482;0.912781
0.483;0.987244
0.484;1.06049
0.485;1.13098
0.486;1.19812
0.487;1.26038
0.488;1.31622
0.489;1.36475
0.49;1.40472
0.491;1.43494
0.492;1.45416
0.493;1.46057
0.494;1.45325
0.495;1.43066
0.496;1.39221
0.497;1.3385
0.498;1.27014
0.499;1.18774
0.5;1.09314
0.501;0.987244
0.502;0.871887
0.503;0.749512
0.504;0.622253
0.505;0.491943
0.506;0.361633
0.507;0.233765
0.508;0.109863
0.509;-0.00762939
0.51;-0.117493
0.511;-0.218201
0.512;-0.308228
0.513;-0.386353
0.514;-0.452271
0.515;-0.505371
0.516;-0.545654
0.517;-0.57312
0.518;-0.588379
0.519;-0.592346
0.52;-0.585632
0.521;-0.569763
0.522;-0.546265
0.523;-0.516968
0.524;-0.482788
0.525;-0.445862
0.526;-0.40741
0.527;-0.369568
0.528;-0.332947
0.529;-0.298462
0.53;-0.267334
0.531;-0.239563
0.532;-0.215454
0.533;-0.194702
0.534;-0.176697
0.535;-0.162048
0.536;-0.149841
0.537;-0.140381
0.538;-0.133057
0.539;-0.127258
0.54;-0.122986
0.541;-0.119934
0.542;-0.118103
0.543;-0.117188
0.544;-0.117188
0.545;-0.118408
0.546;-0.119934
0.547;-0.12207
0.548;-0.123596
0.549;-0.125122
0.55;-0.126038
0.551;-0.125732
0.552;-0.124817
0.553;-0.122986
0.554;-0.12085
0.555;-0.118408
0.556;-0.115967
0.557;-0.113831
0.558;-0.112
0.559;-0.110474
0.56;-0.109253
0.561;-0.108337
0.562;-0.107727
0.563;-0.107422
0.564;-0.106506
0.565;-0.105286
0.566;-0.10376
0.567;-0.101624
0.568;-0.0997925
0.569;-0.0979614
0.57;-0.0973511
0.571;-0.0970459
0.572;-0.0973511
0.573;-0.0979614
0.574;-0.0985718
0.575;-0.0997925
0.576;-0.100708
0.577;-0.102234
0.578;-0.104065
0.579;-0.105896
0.58;-0.108337
0.581;-0.110474
0.582;-0.112
0.583;-0.11261
0.584;-0.112305
0.585;-0.111694
0.586;-0.110474
0.587;-0.108948
0.588;-0.107422
0.589;-0.105286
0.59;-0.102844
0.591;-0.100098
0.592;-0.0973511
0.593;-0.0946045
0.594;-0.0921631
0.595;-0.0894165
0.596;-0.0866699
0.597;-0.0839233
0.598;-0.0811768
0.599;-0.0784302
0.6;-0.0756836
0.601;-0.0732422
0.602;-0.071106
0.603;-0.0692749
0.604;-0.0680542
0.605;-0.0674438
0.606;-0.0674438
0.607;-0.067749
0.608;-0.0683594
0.609;-0.0695801
0.61;-0.0708008
0.611;-0.0726318
0.612;-0.0744629
0.613;-0.0762939
0.614;-0.0778198
0.615;-0.0787354
0.616;-0.0796509
0.617;-0.0802612
0.618;-0.0805664
0.619;-0.0805664
0.62;-0.0793457
0.621;-0.0778198
0.622;-0.0753784
0.623;-0.072937
0.624;-0.0704956
0.625;-0.0683594
0.626;-0.0671387
0.627;-0.0662231
0.628;-0.0656128
0.629;-0.0646973
0.63;-0.0634766
0.631;-0.0616455
0.632;-0.0592041
0.633;-0.0567627
0.634;-0.0543213
0.635;-0.0524902
0.636;-0.0509644
0.637;-0.0497437
0.638;-0.0485229
0.639;-0.0476074
0.64;-0.0463867
0.641;-0.0445557
0.642;-0.0418091
0.643;-0.0387573
0.644;-0.0354004
0.645;-0.0326538
0.646;-0.0296021
0.647;-0.0271606
0.648;-0.0244141
0.649;-0.0219727
0.65;-0.0195312
0.651;-0.0177002
0.652;-0.0164795
0.653;-0.015564
0.654;-0.0152588
0.655;-0.0149536
0.656;-0.0149536
0.657;-0.0152588
0.658;-0.0161743
0.659;-0.0180054
0.66;-0.0201416
0.661;-0.0228882
0.662;-0.0253296
0.663;-0.0271606
0.664;-0.0280762
0.665;-0.0274658
0.666;-0.0262451
0.667;-0.0244141
0.668;-0.022583
0.669;-0.0204468
0.67;-0.0183105
0.671;-0.0158691
0.672;-0.0131226
0.673;-0.00946045
0.674;-0.00549316
0.675;-0.000915527
0.676;0.00335693
0.677;0.00793457
0.678;0.012207
0.679;0.0158691
0.68;0.0195312
0.681;0.022583
0.682;0.0244141
0.683;0.0253296
0.684;0.0253296
0.685;0.0241089
0.686;0.022583
0.687;0.0210571
0.688;0.0198364
0.689;0.0192261
0.69;0.0186157
0.691;0.0180054
0.692;0.0167847
0.693;0.0149536
0.694;0.0128174
0.695;0.0106812
0.696;0.0088501
0.697;0.00762939
0.698;0.00671387
0.699;0.00640869
0.7;0.00640869
0.701;0.00671387
0.702;0.00793457
0.703;0.00915527
0.704;0.0112915
0.705;0.0134277
0.706;0.015564
0.707;0.0177002
0.708;0.0195312
0.709;0.0213623
0.71;0.022583
0.711;0.0238037
0.712;0.0247192
0.713;0.0247192
0.714;0.0244141
0.715;0.0238037
0.716;0.0231934
0.717;0.022583
0.718;0.0219727
0.719;0.0213623
0.72;0.0204468
0.721;0.0195312
0.722;0.0177002
0.723;0.0158691
0.724;0.0134277
0.725;0.010376
0.726;0.00640869
0.727;0.00213623
0.728;-0.00213623
0.729;-0.00610352
0.73;-0.00946045
0.731;-0.0125122
0.732;-0.0158691
0.733;-0.0195312
0.734;-0.022583
0.735;-0.0250244
0.736;-0.0265503
0.737;-0.0274658
0.738;-0.0283813
0.739;-0.0296021
0.74;-0.0305176
0.741;-0.0314331
0.742;-0.0320435
0.743;-0.0320435
0.744;-0.0320435
0.745;-0.0314331
0.746;-0.0302124
0.747;-0.0286865
0.748;-0.0268555
0.749;-0.0247192
0.75;-0.022583
0.751;-0.020752
0.752;-0.0192261
0.753;-0.0177002
0.754;-0.0164795
0.755;-0.0158691
0.756;-0.0158691
0.757;-0.0161743
0.758;-0.0164795
0.759;-0.017395
0.76;-0.0180054
0.761;-0.0189209
0.762;-0.0195312
0.763;-0.0204468
0.764;-0.0213623
0.765;-0.0228882
0.766;-0.0247192
0.767;-0.0271606
0.768;-0.0292969
0.769;-0.0320435
0.77;-0.0341797
0.771;-0.0366211
0.772;-0.0384521
0.773;-0.0402832
0.774;-0.0424194
0.775;-0.0439453
0.776;-0.0454712
0.777;-0.0463867
0.778;-0.0469971
0.779;-0.0473022
0.78;-0.0476074
0.781;-0.0476074
0.782;-0.0479126
0.783;-0.0482178
0.784;-0.0488281
0.785;-0.0497437
0.786;-0.0506592
0.787;-0.0518799
0.788;-0.0531006
0.789;-0.0540161
0.79;-0.0549316
0.791;-0.0561523
0.792;-0.0570679
0.793;-0.0585938
0.794;-0.0604248
0.795;-0.062561
0.796;-0.0650024
0.797;-0.0674438
0.798;-0.0695801
0.799;-0.0714111
0.8;-0.072937
0.801;-0.0747681
0.802;-0.0759888
0.803;-0.0775146
0.804;-0.0784302
0.805;-0.0793457
0.806;-0.0802612
0.807;-0.0808716
0.808;-0.0814819
0.809;-0.0817871
0.81;-0.0820923
0.811;-0.0820923
0.812;-0.0817871
0.813;-0.0814819
0.814;-0.0805664
0.815;-0.0796509
0.816;-0.0784302
0.817;-0.0772095
0.818;-0.0756836
0.819;-0.0744629
0.82;-0.072937
0.821;-0.0714111
0.822;-0.0698853
0.823;-0.0683594
0.824;-0.0668335
0.825;-0.0653076
0.826;-0.0640869
0.827;-0.0631714
0.828;-0.0622559
0.829;-0.0616455
0.83;-0.0616455
0.831;-0.062561
0.832;-0.0640869
0.833;-0.0662231
0.834;-0.0686646
0.835;-0.071106
0.836;-0.0735474
0.837;-0.0753784
0.838;-0.0762939
0.839;-0.0762939
0.84;-0.0756836
0.841;-0.0750732
0.842;-0.0747681
0.843;-0.0756836
0.844;-0.0769043
0.845;-0.0787354
0.846;-0.0802612
0.847;-0.0814819
0.848;-0.0820923
0.849;-0.0811768
0.85;-0.0790405
0.851;-0.0756836
0.852;-0.0717163
0.853;-0.0671387
0.854;-0.062561
0.855;-0.0579834
0.856;-0.0534058
0.857;-0.0500488
0.858;-0.0479126
0.859;-0.0469971
0.86;-0.0469971
0.861;-0.0473022
0.862;-0.0469971
0.863;-0.0460815
0.864;-0.0448608
0.865;-0.043335
0.866;-0.0415039
0.867;-0.0402832
0.868;-0.0390625
0.869;-0.0384521
0.87;-0.0384521
0.871;-0.0387573
0.872;-0.039978
0.873;-0.0411987
0.874;-0.0427246
0.875;-0.0442505
0.876;-0.0454712
0.877;-0.0466919
0.878;-0.0479126
0.879;-0.0488281
0.88;-0.050354
0.881;-0.0515747
0.882;-0.0531006
0.883;-0.0546265
0.884;-0.0564575
0.885;-0.0579834
0.886;-0.0598145
0.887;-0.0610352
0.888;-0.0616455
0.889;-0.0619507
0.89;-0.0619507
0.891;-0.0619507
0.892;-0.0622559
0.893;-0.062561
0.894;-0.0628662
0.895;-0.0634766
0.896;-0.0640869
0.897;-0.0646973
0.898;-0.0650024
0.899;-0.0646973
0.9;-0.0643921
0.901;-0.0640869
0.902;-0.0637817
0.903;-0.0637817
0.904;-0.0640869
0.905;-0.0650024
0.906;-0.0662231
0.907;-0.0680542
0.908;-0.0701904
0.909;-0.0723267
0.91;-0.0744629
0.911;-0.0769043
0.912;-0.0790405
0.913;-0.0811768
0.914;-0.083313
0.915;-0.0848389
0.916;-0.0860596
0.917;-0.0866699
0.918;-0.0872803
0.919;-0.0872803
0.92;-0.0869751
0.921;-0.0866699
0.922;-0.0863647
0.923;-0.0857544
0.924;-0.0848389
0.925;-0.083313
0.926;-0.0814819
0.927;-0.0793457
0.928;-0.0772095
0.929;-0.0750732
0.93;-0.0732422
0.931;-0.0714111
0.932;-0.0701904
0.933;-0.0695801
0.934;-0.0695801
0.935;-0.0701904
0.936;-0.0717163
0.937;-0.0735474
0.938;-0.0759888
0.939;-0.0784302
0.94;-0.0808716
0.941;-0.083313
0.942;-0.0863647
0.943;-0.090332
0.944;-0.0946045
0.945;-0.0991821
0.946;-0.10376
0.947;-0.107727
0.948;-0.110474
0.949;-0.111694
0.95;-0.111389
0.951;-0.109863
0.952;-0.108032
0.953;-0.105896
0.954;-0.10376
0.955;-0.101929
0.956;-0.100403
0.957;-0.098877
0.958;-0.0976562
0.959;-0.0958252
0.96;-0.093689
0.961;-0.0912476
0.962;-0.0881958
0.963;-0.0857544
0.964;-0.0836182
0.965;-0.0817871
0.966;-0.0802612
0.967;-0.0793457
0.968;-0.0787354
0.969;-0.0793457
0.97;-0.0808716
0.971;-0.083313
0.972;-0.0869751
0.973;-0.0906372
0.974;-0.0946045
0.975;-0.0982666
0.976;-0.101624
0.977;-0.10437
0.978;-0.106812
0.979;-0.109253
0.98;-0.111389
0.981;-0.112915
0.982;-0.113831
0.983;-0.114746
0.984;-0.115356
0.985;-0.115356
0.986;-0.114746
0.987;-0.11322
0.988;-0.110779
0.989;-0.108337
0.99;-0.105591
0.991;-0.103149
0.992;-0.101318
0.993;-0.100098
0.994;-0.098877
0.995;-0.0979614
0.996;-0.0967407
0.997;-0.0958252
0.998;-0.0952148
0.999;-0.0949097
1;-0.0946045
1.001;-0.0949097
1.002;-0.09552
1.003;-0.0964355
1.004;-0.0976562
1.005;-0.0994873
1.006;-0.101624
1.007;-0.104065
1.008;-0.106506
1.009;-0.108643
1.01;-0.110474
1.011;-0.112305
1.012;-0.114136
1.013;-0.115662
1.014;-0.116577
1.015;-0.116577
1.016;-0.116272
1.017;-0.115051
1.018;-0.113831
1.019;-0.112305
1.02;-0.110474
1.021;-0.108337
1.022;-0.106201
1.023;-0.10437
1.024;-0.102844
1.025;-0.101929
1.026;-0.101624
1.027;-0.101929
1.028;-0.102539
1.029;-0.102844
1.03;-0.10376
1.031;-0.10437
1.032;-0.104675
1.033;-0.10498
1.034;-0.104675
1.035;-0.10437
1.036;-0.10376
1.037;-0.103149
1.038;-0.102234
1.039;-0.101318
1.04;-0.101013
1.041;-0.101013
1.042;-0.101624
1.043;-0.102539
1.044;-0.103455
1.045;-0.10376
1.046;-0.103455
1.047;-0.101624
1.048;-0.098877
1.049;-0.09552
1.05;-0.0918579
1.051;-0.0888062
1.052;-0.0866699
1.053;-0.0854492
1.054;-0.0848389
1.055;-0.0845337
1.056;-0.0845337
1.057;-0.0848389
1.058;-0.0854492
1.059;-0.0860596
1.06;-0.0869751
1.061;-0.0881958
1.062;-0.0891113
1.063;-0.0897217
1.064;-0.0900269
1.065;-0.0900269
1.066;-0.0897217
1.067;-0.0894165
1.068;-0.0881958
1.069;-0.0863647
1.07;-0.0836182
1.071;-0.0805664
1.072;-0.0775146
1.073;-0.0744629
1.074;-0.0714111
1.075;-0.0680542
1.076;-0.0643921
1.077;-0.0598145
1.078;-0.0549316
1.079;-0.0494385
1.08;-0.0439453
1.081;-0.0384521
1.082;-0.0332642
1.083;-0.0289917
1.084;-0.0256348
1.085;-0.0231934
1.086;-0.0213623
1.087;-0.0204468
1.088;-0.0198364
1.089;-0.0201416
1.09;-0.0210571
1.091;-0.022583
1.092;-0.0247192
1.093;-0.0274658
1.094;-0.0305176
1.095;-0.0332642
1.096;-0.0360107
1.097;-0.0384521
1.098;-0.0405884
1.099;-0.0424194
1.1;-0.0448608
1.101;-0.0473022
1.102;-0.050354
1.103;-0.0537109
1.104;-0.0567627
1.105;-0.0598145
1.106;-0.0616455
1.107;-0.0631714
1.108;-0.0637817
1.109;-0.0640869
1.11;-0.0646973
1.111;-0.0650024
1.112;-0.0653076
1.113;-0.065918
1.114;-0.0665283
1.115;-0.0671387
1.116;-0.0668335
1.117;-0.065918
1.118;-0.0646973
1.119;-0.0631714
1.12;-0.0610352
1.121;-0.0592041
1.122;-0.057373
1.123;-0.0552368
1.124;-0.0531006
1.125;-0.0509644
1.126;-0.0488281
1.127;-0.0463867
1.128;-0.0442505
1.129;-0.0421143
1.13;-0.039978
1.131;-0.038147
1.132;-0.0366211
1.133;-0.0354004
1.134;-0.0344849
1.135;-0.0341797
1.136;-0.0341797
1.137;-0.0354004
1.138;-0.0372314
1.139;-0.0402832
1.14;-0.0430298
1.141;-0.0457764
1.142;-0.0476074
1.143;-0.0488281
1.144;-0.0497437
1.145;-0.0500488
1.146;-0.0506592
1.147;-0.0515747
1.148;-0.0531006
1.149;-0.0549316
1.15;-0.0570679
1.151;-0.0595093
1.152;-0.0613403
1.153;-0.062561
1.154;-0.0637817
1.155;-0.0650024
1.156;-0.065918
1.157;-0.0671387
1.158;-0.0686646
1.159;-0.0704956
1.16;-0.0726318
1.161;-0.0747681
1.162;-0.0765991
1.163;-0.0784302
1.164;-0.0799561
1.165;-0.0817871
1.166;-0.083313
1.167;-0.0845337
1.168;-0.0860596
1.169;-0.0875854
1.17;-0.0891113
1.171;-0.0909424
1.172;-0.0927734
1.173;-0.0942993
1.174;-0.0952148
1.175;-0.09552
1.176;-0.09552
1.177;-0.0949097
1.178;-0.0942993
1.179;-0.0933838
1.18;-0.0930786
1.181;-0.0927734
1.182;-0.0924683
1.183;-0.0924683
1.184;-0.0921631
1.185;-0.0918579
1.186;-0.0918579
1.187;-0.0915527
1.188;-0.0912476
1.189;-0.0909424
1.19;-0.0909424
1.191;-0.0909424
1.192;-0.0906372
1.193;-0.0900269
1.194;-0.088501
1.195;-0.0860596
1.196;-0.0827026
1.197;-0.0790405
1.198;-0.0747681
1.199;-0.0695801
1.2;-0.0634766
1.201;-0.0561523
1.202;-0.0469971
1.203;-0.0357056
1.204;-0.0222778
1.205;-0.00610352
1.206;0.0128174
1.207;0.03479
1.208;0.0595093
1.209;0.0875854
1.21;0.118408
1.211;0.153198
1.212;0.19104
1.213;0.231934
1.214;0.276489
1.215;0.323792
1.216;0.374451
1.217;0.428772
1.218;0.486755
1.219;0.548706
1.22;0.614014
1.221;0.682068
1.222;0.752258
1.223;0.823975
1.224;0.896301
1.225;0.968323
1.226;1.03851
1.227;1.10565
1.228;1.16821
1.229;1.22437
1.23;1.27289
1.231;1.31348
1.232;1.34583
1.233;1.36841
1.234;1.38062
1.235;1.38123
1.236;1.3681
1.237;1.34064
1.238;1.29791
1.239;1.24023
1.24;1.16791
1.241;1.08246
1.242;0.985413
1.243;0.878296
1.244;0.762024
1.245;0.639038
1.246;0.511169
1.247;0.381165
1.248;0.25177
1.249;0.124817
1.25;0.00274658
1.251;-0.112915
1.252;-0.220337
1.253;-0.318298
1.254;-0.406189
1.255;-0.482178
1.256;-0.545959
1.257;-0.596619
1.258;-0.634155
1.259;-0.659485
1.26;-0.672302
1.261;-0.674133
1.262;-0.665588
1.263;-0.647888
1.264;-0.622864
1.265;-0.591736
1.266;-0.557251
1.267;-0.520325
1.268;-0.482788
1.269;-0.445862
1.27;-0.411072
1.271;-0.378418
1.272;-0.349121
1.273;-0.322876
1.274;-0.299988
1.275;-0.279846
1.276;-0.262756
1.277;-0.248413
1.278;-0.236816
1.279;-0.227661
1.28;-0.221252
1.281;-0.21637
1.282;-0.212708
1.283;-0.209961
1.284;-0.20752
1.285;-0.205078
1.286;-0.202942
1.287;-0.200806
1.288;-0.198364
1.289;-0.195923
1.29;-0.193481
1.291;-0.190735
1.292;-0.187683
1.293;-0.184631
1.294;-0.181274
1.295;-0.178223
1.296;-0.175476
1.297;-0.173645
1.298;-0.172729
1.299;-0.171814
1.3;-0.171814
1.301;-0.171814
1.302;-0.172424
1.303;-0.17395
1.304;-0.176697
1.305;-0.180359
1.306;-0.184326
1.307;-0.187988
1.308;-0.190735
1.309;-0.192566
1.31;-0.193481
1.311;-0.193481
1.312;-0.191956
1.313;-0.189209
1.314;-0.185852
1.315;-0.18219
1.316;-0.178833
1.317;-0.175476
1.318;-0.172424
1.319;-0.169373
1.32;-0.166626
1.321;-0.16449
1.322;-0.162048
1.323;-0.159607
1.324;-0.157166
1.325;-0.154419
1.326;-0.151672
1.327;-0.149536
1.328;-0.148315
1.329;-0.147705
1.33;-0.147705
1.331;-0.148926
1.332;-0.150452
1.333;-0.152893
1.334;-0.155334
1.335;-0.158081
1.336;-0.160217
1.337;-0.161133
1.338;-0.161438
1.339;-0.160522
1.34;-0.159302
1.341;-0.157166
1.342;-0.154724
1.343;-0.152283
1.344;-0.150146
1.345;-0.14801
1.346;-0.146484
1.347;-0.144653
1.348;-0.143127
1.349;-0.141907
1.35;-0.140686
1.351;-0.139771
1.352;-0.13855
1.353;-0.137939
1.354;-0.137329
1.355;-0.137329
1.356;-0.137634
1.357;-0.137634
1.358;-0.137634
1.359;-0.137939
1.36;-0.137939
1.361;-0.13855
1.362;-0.138855
1.363;-0.13916
1.364;-0.139465
1.365;-0.139465
1.366;-0.139465
1.367;-0.13916
1.368;-0.13916
1.369;-0.13855
1.37;-0.137939
1.371;-0.137024
1.372;-0.136108
1.373;-0.134888
1.374;-0.133362
1.375;-0.131836
1.376;-0.130615
1.377;-0.1297
1.378;-0.129089
1.379;-0.128174
1.38;-0.127258
1.381;-0.126343
1.382;-0.124817
1.383;-0.123596
1.384;-0.12207
1.385;-0.120544
1.386;-0.119019
1.387;-0.117493
1.388;-0.116272
1.389;-0.115051
1.39;-0.113831
1.391;-0.112915
1.392;-0.112
1.393;-0.111084
1.394;-0.109863
1.395;-0.108643
1.396;-0.107422
1.397;-0.105896
1.398;-0.104675
1.399;-0.103149
1.4;-0.101318
1.401;-0.0991821
1.402;-0.0964355
1.403;-0.0930786
1.404;-0.0897217
1.405;-0.0860596
1.406;-0.0827026
1.407;-0.0793457
1.408;-0.0762939
1.409;-0.0735474
1.41;-0.071106
1.411;-0.0686646
1.412;-0.0662231
1.413;-0.0634766
1.414;-0.0604248
1.415;-0.057373
1.416;-0.0552368
1.417;-0.0534058
1.418;-0.0521851
1.419;-0.0512695
1.42;-0.0506592
1.421;-0.0500488
1.422;-0.0491333
1.423;-0.0482178
1.424;-0.0473022
1.425;-0.0469971
1.426;-0.0466919
1.427;-0.0460815
1.428;-0.0448608
1.429;-0.0430298
1.43;-0.0405884
1.431;-0.038147
1.432;-0.0357056
1.433;-0.0335693
1.434;-0.0317383
1.435;-0.0296021
1.436;-0.0274658
1.437;-0.0253296
1.438;-0.0231934
1.439;-0.0216675
1.44;-0.0204468
1.441;-0.0201416
1.442;-0.0201416
1.443;-0.020752
1.444;-0.0216675
1.445;-0.022583
1.446;-0.0238037
1.447;-0.0253296
1.448;-0.0271606
1.449;-0.0292969
1.45;-0.0314331
1.451;-0.0332642
1.452;-0.03479
1.453;-0.0357056
1.454;-0.0366211
1.455;-0.0375366
1.456;-0.0378418
1.457;-0.0384521
1.458;-0.0387573
1.459;-0.0390625
1.46;-0.0396729
1.461;-0.0402832
1.462;-0.0405884
1.463;-0.0408936
1.464;-0.0411987
1.465;-0.0421143
1.466;-0.0436401
1.467;-0.0457764
1.468;-0.0482178
1.469;-0.0509644
1.47;-0.0531006
1.471;-0.0552368
1.472;-0.0567627
1.473;-0.0576782
1.474;-0.0582886
1.475;-0.0582886
1.476;-0.0585938
1.477;-0.0595093
1.478;-0.06073
1.479;-0.0622559
1.48;-0.0634766
1.481;-0.0640869
1.482;-0.0643921
1.483;-0.0643921
1.484;-0.0637817
1.485;-0.0628662
1.486;-0.0616455
1.487;-0.0595093
1.488;-0.0570679
1.489;-0.0549316
1.49;-0.0531006
1.491;-0.0521851
1.492;-0.0518799
1.493;-0.0524902
1.494;-0.0537109
1.495;-0.0549316
1.496;-0.0564575
1.497;-0.0579834
1.498;-0.0592041
1.499;-0.0604248
1.5;-0.0610352
1.501;-0.0613403
1.502;-0.0616455
1.503;-0.0622559
1.504;-0.0631714
1.505;-0.0650024
1.506;-0.067749
1.507;-0.071106
1.508;-0.0741577
1.509;-0.0772095
1.51;-0.0796509
1.511;-0.0811768
1.512;-0.0817871
1.513;-0.0820923
1.514;-0.0820923
1.515;-0.0823975
1.516;-0.0823975
1.517;-0.0827026
1.518;-0.0830078
1.519;-0.083313
1.52;-0.0836182
1.521;-0.0836182
1.522;-0.0839233
1.523;-0.0839233
1.524;-0.0836182
1.525;-0.0827026
1.526;-0.0814819
1.527;-0.0799561
1.528;-0.078125
1.529;-0.0762939
1.53;-0.0741577
1.531;-0.0720215
1.532;-0.0701904
1.533;-0.0686646
1.534;-0.0680542
1.535;-0.0674438
1.536;-0.0671387
1.537;-0.0671387
1.538;-0.0671387
1.539;-0.0674438
1.54;-0.0683594
1.541;-0.0695801
1.542;-0.071106
1.543;-0.0726318
1.544;-0.0744629
1.545;-0.0759888
1.546;-0.0775146
1.547;-0.0787354
1.548;-0.0796509
1.549;-0.0802612
1.55;-0.0808716
1.551;-0.0823975
1.552;-0.0842285
1.553;-0.0872803
1.554;-0.0906372
1.555;-0.0939941
1.556;-0.0970459
1.557;-0.0994873
1.558;-0.100708
1.559;-0.101624
1.56;-0.101929
1.561;-0.101929
1.562;-0.101624
1.563;-0.101624
1.564;-0.102234
1.565;-0.103149
1.566;-0.10437
1.567;-0.106201
1.568;-0.107727
1.569;-0.109253
1.57;-0.110474
1.571;-0.110779
1.572;-0.110168
1.573;-0.109253
1.574;-0.108337
1.575;-0.107422
1.576;-0.106506
1.577;-0.106201
1.578;-0.105896
1.579;-0.106201
1.58;-0.106201
1.581;-0.105896
1.582;-0.105286
1.583;-0.104065
1.584;-0.102539
1.585;-0.100708
1.586;-0.098877
1.587;-0.0970459
1.588;-0.09552
1.589;-0.0942993
1.59;-0.0930786
1.591;-0.0921631
1.592;-0.0912476
1.593;-0.090332
1.594;-0.0897217
1.595;-0.0888062
1.596;-0.0875854
1.597;-0.0863647
1.598;-0.085144
1.599;-0.0848389
1.6;-0.0848389
1.601;-0.085144
1.602;-0.0857544
1.603;-0.0863647
1.604;-0.0866699
1.605;-0.0872803
1.606;-0.0878906
1.607;-0.088501
1.608;-0.0891113
1.609;-0.0897217
1.61;-0.0900269
1.611;-0.0906372
1.612;-0.0912476
1.613;-0.0918579
1.614;-0.0927734
1.615;-0.093689
1.616;-0.0946045
1.617;-0.0952148
1.618;-0.0958252
1.619;-0.0964355
1.62;-0.0970459
1.621;-0.0976562
1.622;-0.0979614
1.623;-0.0979614
1.624;-0.0979614
1.625;-0.0979614
1.626;-0.0982666
1.627;-0.098877
1.628;-0.0997925
1.629;-0.101013
1.63;-0.102234
1.631;-0.10376
1.632;-0.104675
1.633;-0.105286
1.634;-0.105286
1.635;-0.105591
1.636;-0.105896
1.637;-0.106201
1.638;-0.106506
1.639;-0.107117
1.64;-0.107727
1.641;-0.108643
1.642;-0.109558
1.643;-0.110168
1.644;-0.110779
1.645;-0.111084
1.646;-0.111084
1.647;-0.110168
1.648;-0.108643
1.649;-0.106506
1.65;-0.10437
1.651;-0.102539
1.652;-0.101013
1.653;-0.0997925
1.654;-0.0991821
1.655;-0.0991821
1.656;-0.0991821
1.657;-0.0991821
1.658;-0.098877
1.659;-0.0982666
1.66;-0.0976562
1.661;-0.0967407
1.662;-0.0961304
1.663;-0.0952148
1.664;-0.0939941
1.665;-0.0921631
1.666;-0.0906372
1.667;-0.0894165
1.668;-0.088501
1.669;-0.0878906
1.67;-0.0878906
1.671;-0.0881958
1.672;-0.0881958
1.673;-0.088501
1.674;-0.088501
1.675;-0.088501
1.676;-0.0888062
1.677;-0.0888062
1.678;-0.0891113
1.679;-0.0894165
1.68;-0.0900269
1.681;-0.0912476
1.682;-0.0927734
1.683;-0.0949097
1.684;-0.0973511
1.685;-0.0997925
1.686;-0.102844
1.687;-0.105286
1.688;-0.107117
1.689;-0.108948
1.69;-0.109863
1.691;-0.110474
1.692;-0.110779
1.693;-0.110779
1.694;-0.110779
1.695;-0.111084
1.696;-0.112305
1.697;-0.113831
1.698;-0.115967
1.699;-0.118103
1.7;-0.120239
1.701;-0.121765
1.702;-0.122375
1.703;-0.122986
1.704;-0.123596
1.705;-0.124512
1.706;-0.126038
1.707;-0.128174
1.708;-0.13031
1.709;-0.132141
1.71;-0.133362
1.711;-0.134277
1.712;-0.134583
1.713;-0.135193
1.714;-0.135498
1.715;-0.136414
1.716;-0.137329
1.717;-0.138245
1.718;-0.138245
1.719;-0.137329
1.72;-0.135498
1.721;-0.133057
1.722;-0.130615
1.723;-0.128479
1.724;-0.127258
1.725;-0.126648
1.726;-0.126648
1.727;-0.126343
1.728;-0.125427
1.729;-0.124207
1.73;-0.122375
1.731;-0.120544
1.732;-0.119324
1.733;-0.118713
1.734;-0.119019
1.735;-0.119629
1.736;-0.120544
1.737;-0.12146
1.738;-0.121765
1.739;-0.121765
1.74;-0.12146
1.741;-0.120544
1.742;-0.119324
1.743;-0.118103
1.744;-0.116882
1.745;-0.115967
1.746;-0.115356
1.747;-0.115356
1.748;-0.115051
1.749;-0.115051
1.75;-0.115051
1.751;-0.115356
1.752;-0.115356
1.753;-0.115356
1.754;-0.114746
1.755;-0.114441
1.756;-0.113831
1.757;-0.113525
1.758;-0.11322
1.759;-0.112915
1.76;-0.112915
1.761;-0.112915
1.762;-0.11322
1.763;-0.113831
1.764;-0.114746
1.765;-0.115356
1.766;-0.116272
1.767;-0.116882
1.768;-0.117493
1.769;-0.118408
1.77;-0.119324
1.771;-0.120544
1.772;-0.12207
1.773;-0.123596
1.774;-0.125427
1.775;-0.126648
1.776;-0.127563
1.777;-0.127563
1.778;-0.127869
1.779;-0.127869
1.78;-0.128174
1.781;-0.128174
1.782;-0.128174
1.783;-0.127869
1.784;-0.127563
1.785;-0.126953
1.786;-0.126343
1.787;-0.125122
1.788;-0.124207
1.789;-0.122986
1.79;-0.121765
1.791;-0.120544
1.792;-0.119019
1.793;-0.117188
1.794;-0.115662
1.795;-0.114136
1.796;-0.112305
1.797;-0.110168
1.798;-0.107727
1.799;-0.10498
1.8;-0.102539
1.801;-0.100403
1.802;-0.0979614
1.803;-0.0958252
1.804;-0.0939941
1.805;-0.0927734
1.806;-0.0924683
1.807;-0.0924683
1.808;-0.0927734
1.809;-0.0927734
1.81;-0.0921631
1.811;-0.0912476
1.812;-0.0906372
1.813;-0.090332
1.814;-0.090332
1.815;-0.0909424
1.816;-0.0921631
1.817;-0.093689
1.818;-0.0958252
1.819;-0.0973511
1.82;-0.0985718
1.821;-0.0991821
1.822;-0.0991821
1.823;-0.0991821
1.824;-0.098877
1.825;-0.0979614
1.826;-0.0964355
1.827;-0.0942993
1.828;-0.0915527
1.829;-0.0888062
1.83;-0.0860596
1.831;-0.0836182
1.832;-0.0817871
1.833;-0.0802612
1.834;-0.0793457
1.835;-0.0784302
1.836;-0.0775146
1.837;-0.0759888
1.838;-0.0738525
1.839;-0.0717163
1.84;-0.0695801
1.841;-0.0674438
1.842;-0.0656128
1.843;-0.0643921
1.844;-0.0634766
1.845;-0.0628662
1.846;-0.0631714
1.847;-0.0637817
1.848;-0.0643921
1.849;-0.0646973
1.85;-0.0646973
1.851;-0.0646973
1.852;-0.0643921
1.853;-0.0637817
1.854;-0.0634766
1.855;-0.0628662
1.856;-0.0628662
1.857;-0.0631714
1.858;-0.0640869
1.859;-0.0656128
1.86;-0.0680542
1.861;-0.0708008
1.862;-0.0741577
1.863;-0.0778198
1.864;-0.0814819
1.865;-0.0854492
1.866;-0.0891113
1.867;-0.0927734
1.868;-0.0961304
1.869;-0.0994873
1.87;-0.102844
1.871;-0.106506
1.872;-0.109863
1.873;-0.112915
1.874;-0.115662
1.875;-0.118103
1.876;-0.119934
1.877;-0.12146
1.878;-0.122681
1.879;-0.123596
1.88;-0.124207
1.881;-0.125122
1.882;-0.126343
1.883;-0.127258
1.884;-0.128479
1.885;-0.1297
1.886;-0.13092
1.887;-0.131836
1.888;-0.132446
1.889;-0.132141
1.89;-0.131226
1.891;-0.1297
1.892;-0.127563
1.893;-0.124512
1.894;-0.12146
1.895;-0.118408
1.896;-0.115967
1.897;-0.114746
1.898;-0.113831
1.899;-0.112915
1.9;-0.111694
1.901;-0.109863
1.902;-0.107727
1.903;-0.105286
1.904;-0.102234
1.905;-0.0994873
1.906;-0.0967407
1.907;-0.0942993
1.908;-0.0924683
1.909;-0.0909424
1.91;-0.0894165
1.911;-0.0875854
1.912;-0.085144
1.913;-0.0823975
1.914;-0.0793457
1.915;-0.0759888
1.916;-0.0723267
1.917;-0.0680542
1.918;-0.0616455
1.919;-0.0534058
1.92;-0.0430298
1.921;-0.0302124
1.922;-0.0149536
1.923;0.00274658
1.924;0.0228882
1.925;0.0457764
1.926;0.0720215
1.927;0.101624
1.928;0.135193
1.929;0.172729
1.93;0.214233
1.931;0.260315
1.932;0.309753
1.933;0.363464
1.934;0.420532
1.935;0.481873
1.936;0.547485
1.937;0.61676
1.938;0.689392
1.939;0.764465
1.94;0.840454
1.941;0.916138
1.942;0.990295
1.943;1.06171
1.944;1.12854
1.945;1.19019
1.946;1.24603
1.947;1.29517
1.948;1.33728
1.949;1.37146
1.95;1.39648
1.951;1.41144
1.952;1.41449
1.953;1.40442
1.954;1.38031
1.955;1.34186
1.956;1.28845
1.957;1.2207
1.958;1.13953
1.959;1.04553
1.96;0.940857
1.961;0.828247
1.962;0.709534
1.963;0.586853
1.964;0.462341
1.965;0.336914
1.966;0.213013
1.967;0.0912476
1.968;-0.0262451
1.969;-0.137939
1.97;-0.242004
1.971;-0.33783
1.972;-0.423584
1.973;-0.498047
1.974;-0.560303
1.975;-0.610046
1.976;-0.647278
1.977;-0.672607
1.978;-0.686951
1.979;-0.690918
1.98;-0.685425
1.981;-0.672302
1.982;-0.651855
1.983;-0.626526
1.984;-0.597229
1.985;-0.565796
1.986;-0.533447
1.987;-0.501404
1.988;-0.469971
1.989;-0.439148
1.99;-0.410156
1.991;-0.38269
1.992;-0.357056
1.993;-0.333862
1.994;-0.31311
1.995;-0.295105
1.996;-0.279541
1.997;-0.266113
1.998;-0.254517
1.999;-0.244141
2;-0.234985
2.001;-0.226746
2.002;-0.219116
2.003;-0.212097
2.004;-0.205688
2.005;-0.198975
2.006;-0.192566
2.007;-0.185852
2.008;-0.179443
2.009;-0.17334
2.01;-0.168152
2.011;-0.163269
2.012;-0.159607
2.013;-0.15686
2.014;-0.154724
2.015;-0.153198
2.016;-0.151978
2.017;-0.151062
2.018;-0.150757
2.019;-0.150146
2.02;-0.149841
2.021;-0.150146
2.022;-0.150757
2.023;-0.151978
2.024;-0.153198
2.025;-0.155029
2.026;-0.15686
2.027;-0.158997
2.028;-0.160828
2.029;-0.162354
2.03;-0.162659
2.031;-0.162048
2.032;-0.161133
2.033;-0.159912
2.034;-0.158997
2.035;-0.157776
2.036;-0.15686
2.037;-0.155334
2.038;-0.153503
2.039;-0.151367
2.04;-0.148926
2.041;-0.146179
2.042;-0.143738
2.043;-0.140991
2.044;-0.13855
2.045;-0.136414
2.046;-0.133972
2.047;-0.131226
2.048;-0.128479
2.049;-0.126038
2.05;-0.124207
2.051;-0.122681
2.052;-0.121765
2.053;-0.12085
2.054;-0.120239
2.055;-0.119629
2.056;-0.119019
2.057;-0.118103
2.058;-0.117493
2.059;-0.116882
2.06;-0.117188
2.061;-0.117798
2.062;-0.118408
2.063;-0.119324
2.064;-0.119629
2.065;-0.119934
2.066;-0.120544
2.067;-0.121155
2.068;-0.121765
2.069;-0.122375
2.07;-0.122681
2.071;-0.122986
2.072;-0.122681
2.073;-0.122375
2.074;-0.12207
2.075;-0.12146
2.076;-0.120544
2.077;-0.119019
2.078;-0.116882
2.079;-0.114746
2.08;-0.112
2.081;-0.109558
2.082;-0.106812
2.083;-0.10437
2.084;-0.101624
2.085;-0.098877
2.086;-0.0967407
2.087;-0.0946045
2.088;-0.0927734
2.089;-0.0909424
2.09;-0.0888062
2.091;-0.0866699
2.092;-0.0845337
2.093;-0.0827026
2.094;-0.0811768
2.095;-0.0799561
2.096;-0.0790405
2.097;-0.0784302
2.098;-0.078125
2.099;-0.078125
2.1;-0.0778198
2.101;-0.0775146
2.102;-0.0772095
2.103;-0.0765991
2.104;-0.0759888
2.105;-0.0750732
2.106;-0.0744629
2.107;-0.0735474
2.108;-0.072937
2.109;-0.0723267
2.11;-0.0723267
2.111;-0.0723267
2.112;-0.0720215
2.113;-0.0717163
2.114;-0.0708008
2.115;-0.0692749
2.116;-0.0674438
2.117;-0.0650024
2.118;-0.0628662
2.119;-0.06073
2.12;-0.0588989
2.121;-0.0567627
2.122;-0.0546265
2.123;-0.0518799
2.124;-0.0494385
2.125;-0.0469971
2.126;-0.0445557
2.127;-0.0415039
2.128;-0.0384521
2.129;-0.03479
2.13;-0.0305176
2.131;-0.0262451
2.132;-0.022583
2.133;-0.0192261
2.134;-0.0164795
2.135;-0.0143433
2.136;-0.012207
2.137;-0.010376
2.138;-0.0088501
2.139;-0.00762939
2.14;-0.00671387
2.141;-0.00610352
2.142;-0.00610352
2.143;-0.00579834
2.144;-0.00579834
2.145;-0.00549316
2.146;-0.00579834
2.147;-0.00610352
2.148;-0.00671387
2.149;-0.00762939
2.15;-0.00823975
2.151;-0.0088501
2.152;-0.00946045
2.153;-0.010376
2.154;-0.0119019
2.155;-0.0134277
2.156;-0.0146484
2.157;-0.0158691
2.158;-0.0164795
2.159;-0.0164795
2.16;-0.015564
2.161;-0.0137329
2.162;-0.0115967
2.163;-0.0088501
2.164;-0.00610352
2.165;-0.00396729
2.166;-0.00152588
2.167;0.000915527
2.168;0.00366211
2.169;0.00640869
2.17;0.0088501
2.171;0.0112915
2.172;0.0131226
2.173;0.0146484
2.174;0.015564
2.175;0.0161743
2.176;0.0161743
2.177;0.015564
2.178;0.0143433
2.179;0.0125122
2.18;0.0100708
2.181;0.00732422
2.182;0.00396729
2.183;0
2.184;-0.00396729
2.185;-0.00854492
2.186;-0.0131226
2.187;-0.0170898
2.188;-0.0210571
2.189;-0.0244141
2.19;-0.027771
2.191;-0.0308228
2.192;-0.0335693
2.193;-0.0360107
2.194;-0.038147
2.195;-0.039978
2.196;-0.0411987
2.197;-0.0424194
2.198;-0.0439453
2.199;-0.045166
2.2;-0.0466919
2.201;-0.0476074
2.202;-0.0479126
2.203;-0.0485229
2.204;-0.0491333
2.205;-0.0497437
2.206;-0.0506592
2.207;-0.0509644
2.208;-0.0512695
2.209;-0.0512695
2.21;-0.0509644
2.211;-0.0509644
2.212;-0.050354
2.213;-0.0497437
2.214;-0.0488281
2.215;-0.0476074
2.216;-0.0463867
2.217;-0.045166
2.218;-0.0439453
2.219;-0.0430298
2.22;-0.0424194
2.221;-0.0415039
2.222;-0.0402832
2.223;-0.0393677
2.224;-0.0387573
2.225;-0.0384521
2.226;-0.038147
2.227;-0.038147
2.228;-0.0384521
2.229;-0.0384521
2.23;-0.0384521
2.231;-0.038147
2.232;-0.0387573
2.233;-0.0396729
2.234;-0.0411987
2.235;-0.043335
2.236;-0.0454712
2.237;-0.0469971
2.238;-0.0476074
2.239;-0.0469971
2.24;-0.0454712
2.241;-0.043335
2.242;-0.0408936
2.243;-0.0384521
2.244;-0.0363159
2.245;-0.03479
2.246;-0.0335693
2.247;-0.032959
2.248;-0.0323486
2.249;-0.0320435
2.25;-0.0311279
2.251;-0.0302124
2.252;-0.0292969
2.253;-0.0283813
2.254;-0.027771
2.255;-0.027771
2.256;-0.0280762
2.257;-0.0289917
2.258;-0.0296021
2.259;-0.0302124
2.26;-0.0305176
2.261;-0.0311279
2.262;-0.0314331
2.263;-0.0317383
2.264;-0.0323486
2.265;-0.0332642
2.266;-0.0344849
2.267;-0.0360107
2.268;-0.0375366
2.269;-0.0387573
2.27;-0.039978
2.271;-0.0408936
2.272;-0.0421143
2.273;-0.043335
2.274;-0.0448608
2.275;-0.0466919
2.276;-0.0491333
2.277;-0.0518799
2.278;-0.0543213
2.279;-0.0570679
2.28;-0.0592041
2.281;-0.0610352
2.282;-0.062561
2.283;-0.0637817
2.284;-0.0646973
2.285;-0.0653076
2.286;-0.0656128
2.287;-0.065918
2.288;-0.0662231
2.289;-0.065918
2.29;-0.0656128
2.291;-0.0650024
2.292;-0.0637817
2.293;-0.062561
2.294;-0.0610352
2.295;-0.0598145
2.296;-0.0588989
2.297;-0.0579834
2.298;-0.0567627
2.299;-0.0552368
2.3;-0.0540161
2.301;-0.0531006
2.302;-0.0521851
2.303;-0.0518799
2.304;-0.0518799
2.305;-0.0524902
2.306;-0.0534058
2.307;-0.0543213
2.308;-0.0552368
2.309;-0.0561523
2.31;-0.0570679
2.311;-0.0576782
2.312;-0.0579834
2.313;-0.0576782
2.314;-0.057373
2.315;-0.0564575
2.316;-0.0549316
2.317;-0.0531006
2.318;-0.0515747
2.319;-0.0500488
2.32;-0.0488281
2.321;-0.0479126
2.322;-0.0466919
2.323;-0.045166
2.324;-0.043335
2.325;-0.0411987
2.326;-0.0393677
2.327;-0.038147
2.328;-0.0375366
2.329;-0.0372314
2.33;-0.0378418
2.331;-0.0387573
2.332;-0.0396729
2.333;-0.0408936
2.334;-0.0415039
2.335;-0.0415039
2.336;-0.0408936
2.337;-0.039978
2.338;-0.0393677
2.339;-0.0390625
2.34;-0.0387573
2.341;-0.0393677
2.342;-0.0396729
2.343;-0.039978
2.344;-0.0396729
2.345;-0.0393677
2.346;-0.0393677
2.347;-0.0390625
2.348;-0.0384521
2.349;-0.0378418
2.35;-0.0372314
2.351;-0.0366211
2.352;-0.0366211
2.353;-0.0369263
2.354;-0.0378418
2.355;-0.0384521
2.356;-0.0390625
2.357;-0.039978
2.358;-0.0405884
2.359;-0.0415039
2.36;-0.0427246
2.361;-0.0439453
2.362;-0.0454712
2.363;-0.0473022
2.364;-0.0494385
2.365;-0.0518799
2.366;-0.0537109
2.367;-0.0552368
2.368;-0.0561523
2.369;-0.0567627
2.37;-0.0570679
2.371;-0.057373
2.372;-0.057373
2.373;-0.057373
2.374;-0.057373
2.375;-0.057373
2.376;-0.057373
2.377;-0.0579834
2.378;-0.0585938
2.379;-0.0598145
2.38;-0.0616455
2.381;-0.0637817
2.382;-0.065918
2.383;-0.0680542
2.384;-0.0692749
2.385;-0.0698853
2.386;-0.0701904
2.387;-0.0698853
2.388;-0.0698853
2.389;-0.0701904
2.39;-0.071106
2.391;-0.0723267
2.392;-0.0738525
2.393;-0.0744629
2.394;-0.0741577
2.395;-0.0723267
2.396;-0.0695801
2.397;-0.0665283
2.398;-0.0631714
2.399;-0.0601196
2.4;-0.0576782
2.401;-0.055542
2.402;-0.0537109
2.403;-0.0521851
2.404;-0.0509644
2.405;-0.0500488
2.406;-0.0491333
2.407;-0.0482178
2.408;-0.0476074
2.409;-0.0473022
2.41;-0.0469971
2.411;-0.0473022
2.412;-0.0485229
2.413;-0.0500488
2.414;-0.0515747
2.415;-0.0534058
2.416;-0.0552368
2.417;-0.0570679
2.418;-0.0585938
2.419;-0.0604248
2.42;-0.0619507
2.421;-0.0634766
2.422;-0.0646973
2.423;-0.0656128
2.424;-0.065918
2.425;-0.0653076
2.426;-0.0637817
2.427;-0.0622559
2.428;-0.06073
2.429;-0.0592041
2.43;-0.0579834
2.431;-0.057373
2.432;-0.057373
2.433;-0.0579834
2.434;-0.0585938
2.435;-0.0592041
2.436;-0.0595093
2.437;-0.0598145
2.438;-0.0598145
2.439;-0.0601196
2.44;-0.06073
2.441;-0.0616455
2.442;-0.062561
2.443;-0.0631714
2.444;-0.0637817
2.445;-0.0643921
2.446;-0.0643921
2.447;-0.0643921
2.448;-0.0643921
2.449;-0.0643921
2.45;-0.0643921
2.451;-0.0643921
2.452;-0.0646973
2.453;-0.0650024
2.454;-0.0653076
2.455;-0.065918
2.456;-0.0662231
2.457;-0.0665283
2.458;-0.0665283
2.459;-0.0668335
2.46;-0.0674438
2.461;-0.0680542
2.462;-0.0689697
2.463;-0.0698853
2.464;-0.0704956
2.465;-0.071106
2.466;-0.0714111
2.467;-0.0714111
2.468;-0.0714111
2.469;-0.071106
2.47;-0.0708008
2.471;-0.0704956
2.472;-0.0698853
2.473;-0.0689697
2.474;-0.0674438
2.475;-0.065918
2.476;-0.0637817
2.477;-0.0613403
2.478;-0.0585938
2.479;-0.0558472
2.48;-0.0534058
2.481;-0.0509644
2.482;-0.0488281
2.483;-0.0469971
2.484;-0.0445557
2.485;-0.0424194
2.486;-0.0402832
2.487;-0.0387573
2.488;-0.0375366
2.489;-0.0369263
2.49;-0.0366211
2.491;-0.0366211
2.492;-0.0372314
2.493;-0.0378418
2.494;-0.0384521
2.495;-0.0390625
2.496;-0.039978
2.497;-0.0408936
2.498;-0.0427246
2.499;-0.0448608
2.5;-0.0473022
2.501;-0.0494385
2.502;-0.0515747
2.503;-0.0534058
2.504;-0.0549316
2.505;-0.0564575
2.506;-0.0576782
2.507;-0.0582886
2.508;-0.0585938
2.509;-0.0579834
2.51;-0.0564575
2.511;-0.0540161
2.512;-0.0509644
2.513;-0.0476074
2.514;-0.0442505
2.515;-0.0408936
2.516;-0.0378418
2.517;-0.03479
2.518;-0.0317383
2.519;-0.0286865
2.52;-0.0262451
2.521;-0.0241089
2.522;-0.0222778
2.523;-0.0213623
2.524;-0.0204468
2.525;-0.0201416
2.526;-0.0201416
2.527;-0.0204468
2.528;-0.0210571
2.529;-0.0216675
2.53;-0.0219727
2.531;-0.0222778
2.532;-0.0228882
2.533;-0.0238037
2.534;-0.0250244
2.535;-0.0265503
2.536;-0.0280762
2.537;-0.0292969
2.538;-0.0299072
2.539;-0.0302124
2.54;-0.0299072
2.541;-0.0292969
2.542;-0.027771
2.543;-0.0259399
2.544;-0.0241089
2.545;-0.0219727
2.546;-0.0198364
2.547;-0.0180054
2.548;-0.0167847
2.549;-0.0158691
2.55;-0.015564
2.551;-0.015564
2.552;-0.0158691
2.553;-0.0161743
2.554;-0.0164795
2.555;-0.0164795
2.556;-0.0158691
2.557;-0.0146484
2.558;-0.0131226
2.559;-0.0109863
2.56;-0.00854492
2.561;-0.00610352
2.562;-0.00396729
2.563;-0.00213623
2.564;-0.000305176
2.565;0.00152588
2.566;0.00366211
2.567;0.00610352
2.568;0.00854492
2.569;0.0109863
2.57;0.0134277
2.571;0.0149536
2.572;0.0158691
2.573;0.015564
2.574;0.0146484
2.575;0.0128174
2.576;0.0100708
2.577;0.00640869
2.578;0.00152588
2.579;-0.00396729
2.58;-0.010376
2.581;-0.0164795
2.582;-0.0222778
2.583;-0.0280762
2.584;-0.0335693
2.585;-0.0390625
2.586;-0.0445557
2.587;-0.0500488
2.588;-0.0549316
2.589;-0.0592041
2.59;-0.0628662
2.591;-0.0656128
2.592;-0.0674438
2.593;-0.0680542
2.594;-0.0680542
2.595;-0.0671387
2.596;-0.065918
2.597;-0.0643921
2.598;-0.0628662
2.599;-0.0619507
2.6;-0.0610352
2.601;-0.06073
2.602;-0.06073
2.603;-0.0610352
2.604;-0.0613403
2.605;-0.0613403
2.606;-0.0613403
2.607;-0.0616455
2.608;-0.0619507
2.609;-0.062561
2.61;-0.0634766
2.611;-0.0646973
2.612;-0.0662231
2.613;-0.0674438
2.614;-0.0680542
2.615;-0.0674438
2.616;-0.0662231
2.617;-0.0637817
2.618;-0.0601196
2.619;-0.0558472
2.62;-0.0512695
2.621;-0.0466919
2.622;-0.0421143
2.623;-0.0375366
2.624;-0.0323486
2.625;-0.0274658
2.626;-0.0219727
2.627;-0.0164795
2.628;-0.0106812
2.629;-0.00488281
2.63;0.000915527
2.631;0.00671387
2.632;0.0125122
2.633;0.0189209
2.634;0.0259399
2.635;0.0341797
2.636;0.0445557
2.637;0.0567627
2.638;0.0714111
2.639;0.088501
2.64;0.107727
2.641;0.129089
2.642;0.152893
2.643;0.179749
2.644;0.210266
2.645;0.245361
2.646;0.284424
2.647;0.328369
2.648;0.376282
2.649;0.429077
2.65;0.48645
2.651;0.548706
2.652;0.614929
2.653;0.68512
2.654;0.757751
2.655;0.832214
2.656;0.906982
2.657;0.98114
2.658;1.05347
2.659;1.12244
2.66;1.18774
2.661;1.24817
2.662;1.30249
2.663;1.34979
2.664;1.38916
2.665;1.41937
2.666;1.4389
2.667;1.44623
2.668;1.43982
2.669;1.41846
2.67;1.38184
2.671;1.32996
2.672;1.26343
2.673;1.18378
2.674;1.09161
2.675;0.988464
2.676;0.875854
2.677;0.755615
2.678;0.630188
2.679;0.500793
2.68;0.370178
2.681;0.241089
2.682;0.115356
2.683;-0.00427246
2.684;-0.115967
2.685;-0.218811
2.686;-0.311584
2.687;-0.393372
2.688;-0.463867
2.689;-0.522461
2.69;-0.569458
2.691;-0.604553
2.692;-0.627441
2.693;-0.638733
2.694;-0.638733
2.695;-0.628357
2.696;-0.609131
2.697;-0.582275
2.698;-0.549927
2.699;-0.513916
2.7;-0.475769
2.701;-0.437622
2.702;-0.400391
2.703;-0.364685
2.704;-0.331421
2.705;-0.300598
2.706;-0.272522
2.707;-0.247498
2.708;-0.224915
2.709;-0.205688
2.71;-0.189209
2.711;-0.175781
2.712;-0.164795
2.713;-0.155945
2.714;-0.148926
2.715;-0.143127
2.716;-0.138245
2.717;-0.133972
2.718;-0.130615
2.719;-0.127563
2.72;-0.125427
2.721;-0.123901
2.722;-0.122375
2.723;-0.12146
2.724;-0.119934
2.725;-0.118408
2.726;-0.116882
2.727;-0.115662
2.728;-0.114746
2.729;-0.113831
2.73;-0.11261
2.731;-0.111389
2.732;-0.110168
2.733;-0.108948
2.734;-0.107727
2.735;-0.107117
2.736;-0.107117
2.737;-0.107727
2.738;-0.108948
2.739;-0.110779
2.74;-0.11261
2.741;-0.114441
2.742;-0.115967
2.743;-0.117188
2.744;-0.118103
2.745;-0.118713
2.746;-0.119019
2.747;-0.119019
2.748;-0.118408
2.749;-0.117188
2.75;-0.115967
2.751;-0.114441
2.752;-0.11261
2.753;-0.110168
2.754;-0.107422
2.755;-0.10437
2.756;-0.101318
2.757;-0.0985718
2.758;-0.09552
2.759;-0.0927734
2.76;-0.0900269
2.761;-0.0869751
2.762;-0.0842285
2.763;-0.0814819
2.764;-0.0790405
2.765;-0.0772095
2.766;-0.0756836
2.767;-0.0750732
2.768;-0.0750732
2.769;-0.0753784
2.77;-0.0769043
2.771;-0.0787354
2.772;-0.0814819
2.773;-0.0842285
2.774;-0.0869751
2.775;-0.0894165
2.776;-0.0909424
2.777;-0.0918579
2.778;-0.0915527
2.779;-0.0909424
2.78;-0.090332
2.781;-0.0894165
2.782;-0.0888062
2.783;-0.0881958
2.784;-0.0872803
2.785;-0.0863647
2.786;-0.0845337
2.787;-0.0817871
2.788;-0.0784302
2.789;-0.0747681
2.79;-0.0708008
2.791;-0.0668335
2.792;-0.062561
2.793;-0.0585938
2.794;-0.0549316
2.795;-0.0515747
2.796;-0.0491333
2.797;-0.0476074
2.798;-0.0469971
2.799;-0.0466919
2.8;-0.0460815
2.801;-0.045166
2.802;-0.0436401
2.803;-0.0424194
2.804;-0.0411987
2.805;-0.0405884
2.806;-0.0405884
2.807;-0.0408936
2.808;-0.0411987
2.809;-0.0408936
2.81;-0.039978
2.811;-0.0384521
2.812;-0.0363159
2.813;-0.0335693
2.814;-0.0308228
2.815;-0.0280762
2.816;-0.0256348
2.817;-0.0231934
2.818;-0.0210571
2.819;-0.0189209
2.82;-0.0167847
2.821;-0.0146484
2.822;-0.0125122
2.823;-0.010376
2.824;-0.0088501
2.825;-0.00762939
2.826;-0.00732422
2.827;-0.00732422
2.828;-0.00793457
2.829;-0.00915527
2.83;-0.010376
2.831;-0.0115967
2.832;-0.0128174
2.833;-0.0137329
2.834;-0.0146484
2.835;-0.0152588
2.836;-0.0158691
2.837;-0.0161743
2.838;-0.0167847
2.839;-0.0170898
2.84;-0.017395
2.841;-0.0170898
2.842;-0.0164795
2.843;-0.0152588
2.844;-0.0137329
2.845;-0.0112915
2.846;-0.00762939
2.847;-0.00335693
2.848;0.00274658
2.849;0.00946045
2.85;0.0167847
2.851;0.0238037
2.852;0.0302124
2.853;0.0357056
2.854;0.0402832
2.855;0.0448608
2.856;0.0488281
2.857;0.0531006
2.858;0.057373
2.859;0.0610352
2.86;0.0637817
2.861;0.065918
2.862;0.0668335
2.863;0.0674438
2.864;0.0671387
2.865;0.0662231
2.866;0.0653076
2.867;0.0637817
2.868;0.0616455
2.869;0.0595093
2.87;0.0570679
2.871;0.0543213
2.872;0.0521851
2.873;0.0506592
2.874;0.0494385
2.875;0.0488281
2.876;0.0482178
2.877;0.0476074
2.878;0.0466919
2.879;0.0460815
2.88;0.0448608
2.881;0.0436401
2.882;0.0424194
2.883;0.0411987
2.884;0.039978
2.885;0.0387573
2.886;0.0378418
2.887;0.0369263
2.888;0.0366211
2.889;0.0369263
2.89;0.0369263
2.891;0.0369263
2.892;0.0363159
2.893;0.0354004
2.894;0.0341797
2.895;0.032959
2.896;0.0317383
2.897;0.0308228
2.898;0.0302124
2.899;0.0299072
2.9;0.0296021
2.901;0.0296021
2.902;0.0292969
2.903;0.0289917
2.904;0.0283813
2.905;0.0274658
2.906;0.0262451
2.907;0.0247192
2.908;0.0228882
2.909;0.0210571
2.91;0.0192261
2.911;0.0167847
2.912;0.0140381
2.913;0.010376
2.914;0.00610352
2.915;0.0012207
2.916;-0.00396729
2.917;-0.00854492
2.918;-0.0125122
2.919;-0.0158691
2.92;-0.0180054
2.921;-0.0189209
2.922;-0.0189209
2.923;-0.0186157
2.924;-0.0183105
2.925;-0.0189209
2.926;-0.0201416
2.927;-0.0222778
2.928;-0.0238037
2.929;-0.0244141
2.93;-0.0234985
2.931;-0.0210571
2.932;-0.017395
2.933;-0.0131226
2.934;-0.00854492
2.935;-0.00457764
2.936;-0.000915527
2.937;0.00213623
2.938;0.00457764
2.939;0.00640869
2.94;0.00732422
2.941;0.00793457
2.942;0.00823975
2.943;0.00854492
2.944;0.00854492
2.945;0.0088501
2.946;0.00915527
2.947;0.00976562
2.948;0.0100708
2.949;0.0100708
2.95;0.00915527
2.951;0.00793457
2.952;0.00579834
2.953;0.00366211
2.954;0.0012207
2.955;-0.000915527
2.956;-0.00274658
2.957;-0.00396729
2.958;-0.00457764
2.959;-0.00457764
2.96;-0.00427246
2.961;-0.00396729
2.962;-0.00305176
2.963;-0.00213623
2.964;-0.0012207
2.965;-0.000305176
2.966;0.000305176
2.967;0.000305176
2.968;-0.000305176
2.969;-0.000915527
2.97;-0.00152588
2.971;-0.00244141
2.972;-0.00335693
2.973;-0.00427246
2.974;-0.00610352
2.975;-0.00823975
2.976;-0.0109863
2.977;-0.0137329
2.978;-0.0164795
2.979;-0.0186157
2.98;-0.0201416
2.981;-0.0210571
2.982;-0.0210571
2.983;-0.020752
2.984;-0.0204468
2.985;-0.0198364
2.986;-0.0192261
2.987;-0.0183105
2.988;-0.017395
2.989;-0.0161743
2.99;-0.0149536
2.991;-0.0140381
2.992;-0.0134277
2.993;-0.0125122
2.994;-0.012207
2.995;-0.012207
2.996;-0.0125122
2.997;-0.0134277
2.998;-0.0143433
2.999;-0.0152588
3;-0.0161743
3.001;-0.0170898
3.002;-0.0180054
3.003;-0.0195312
3.004;-0.0213623
3.005;-0.0231934
3.006;-0.0256348
3.007;-0.0274658
3.008;-0.0292969
3.009;-0.0305176
3.01;-0.0308228
3.011;-0.0305176
3.012;-0.0299072
3.013;-0.0292969
3.014;-0.0280762
3.015;-0.0268555
3.016;-0.0247192
3.017;-0.0219727
3.018;-0.0189209
3.019;-0.0152588
3.02;-0.0119019
3.021;-0.0088501
3.022;-0.00579834
3.023;-0.00335693
3.024;-0.000915527
3.025;0.000610352
3.026;0.00213623
3.027;0.00305176
3.028;0.00396729
3.029;0.00488281
3.03;0.00579834
3.031;0.00701904
3.032;0.00793457
3.033;0.00854492
3.034;0.00823975
3.035;0.00732422
3.036;0.00579834
3.037;0.00427246
3.038;0.00274658
3.039;0.000915527
3.04;-0.000610352
3.041;-0.00244141
3.042;-0.00427246
3.043;-0.00579834
3.044;-0.00701904
3.045;-0.00762939
3.046;-0.00793457
3.047;-0.00793457
3.048;-0.00823975
3.049;-0.0088501
3.05;-0.00946045
3.051;-0.0100708
3.052;-0.0100708
3.053;-0.00946045
3.054;-0.0088501
3.055;-0.00793457
3.056;-0.00701904
3.057;-0.00579834
3.058;-0.00457764
3.059;-0.00366211
3.06;-0.00274658
3.061;-0.00213623
3.062;-0.00183105
3.063;-0.00183105
3.064;-0.00183105
3.065;-0.00152588
3.066;-0.000915527
3.067;-0.000610352
3.068;-0.000305176
3.069;-0.000610352
3.07;-0.00152588
3.071;-0.00305176
3.072;-0.00457764
3.073;-0.00579834
3.074;-0.00640869
3.075;-0.00671387
3.076;-0.00640869
3.077;-0.00579834
3.078;-0.00457764
3.079;-0.00335693
3.08;-0.00244141
3.081;-0.00213623
3.082;-0.00183105
3.083;-0.00152588
3.084;-0.0012207
3.085;-0.00152588
3.086;-0.00183105
3.087;-0.00183105
3.088;-0.00152588
3.089;-0.000915527
3.09;-0.000305176
3.091;-0.000305176
3.092;-0.000610352
3.093;-0.00152588
3.094;-0.00274658
3.095;-0.00427246
3.096;-0.00610352
3.097;-0.00762939
3.098;-0.00976562
3.099;-0.012207
3.1;-0.0146484
3.101;-0.017395
3.102;-0.0195312
3.103;-0.0219727
3.104;-0.0244141
3.105;-0.0268555
3.106;-0.0292969
3.107;-0.0314331
3.108;-0.0332642
3.109;-0.0341797
3.11;-0.0344849
3.111;-0.0338745
3.112;-0.0326538
3.113;-0.0314331
3.114;-0.0305176
3.115;-0.0292969
3.116;-0.0283813
3.117;-0.0274658
3.118;-0.0265503
3.119;-0.0256348
3.12;-0.0250244
3.121;-0.0241089
3.122;-0.0231934
3.123;-0.0222778
3.124;-0.0216675
3.125;-0.0213623
3.126;-0.0210571
3.127;-0.020752
3.128;-0.0204468
3.129;-0.0204468
3.13;-0.0204468
3.131;-0.0210571
3.132;-0.0219727
3.133;-0.0228882
3.134;-0.0241089
3.135;-0.0250244
3.136;-0.0256348
3.137;-0.0259399
3.138;-0.0259399
3.139;-0.0256348
3.14;-0.0253296
3.141;-0.0250244
3.142;-0.0247192
3.143;-0.0241089
3.144;-0.0231934
3.145;-0.022583
3.146;-0.0219727
3.147;-0.0213623
3.148;-0.0216675
3.149;-0.0222778
3.15;-0.0228882
3.151;-0.0238037
3.152;-0.0244141
3.153;-0.0253296
3.154;-0.0262451
3.155;-0.027771
3.156;-0.0299072
3.157;-0.0326538
3.158;-0.0354004
3.159;-0.0375366
3.16;-0.0387573
3.161;-0.0393677
3.162;-0.0390625
3.163;-0.038147
3.164;-0.0372314
3.165;-0.0366211
3.166;-0.0363159
3.167;-0.0360107
3.168;-0.0357056
3.169;-0.0354004
3.17;-0.0350952
3.171;-0.03479
3.172;-0.03479
3.173;-0.0350952
3.174;-0.0357056
3.175;-0.0363159
3.176;-0.0366211
3.177;-0.0366211
3.178;-0.0363159
3.179;-0.0363159
3.18;-0.0366211
3.181;-0.0375366
3.182;-0.0393677
3.183;-0.0415039
3.184;-0.0445557
3.185;-0.0473022
3.186;-0.0500488
3.187;-0.0518799
3.188;-0.0531006
3.189;-0.0534058
3.19;-0.0527954
3.191;-0.0518799
3.192;-0.050354
3.193;-0.0488281
3.194;-0.0473022
3.195;-0.0460815
3.196;-0.0448608
3.197;-0.043335
3.198;-0.0411987
3.199;-0.038147
3.2;-0.03479
3.201;-0.0308228
3.202;-0.0268555
3.203;-0.0231934
3.204;-0.0198364
3.205;-0.0164795
3.206;-0.0134277
3.207;-0.010376
3.208;-0.00701904
3.209;-0.00427246
3.21;-0.00152588
3.211;0.000305176
3.212;0.00183105
3.213;0.00305176
3.214;0.00366211
3.215;0.00366211
3.216;0.00305176
3.217;0.00183105
3.218;-0.000915527
3.219;-0.00427246
3.22;-0.00793457
3.221;-0.0115967
3.222;-0.0143433
3.223;-0.0167847
3.224;-0.0183105
3.225;-0.0189209
3.226;-0.0195312
3.227;-0.0198364
3.228;-0.0201416
3.229;-0.0201416
3.23;-0.0198364
3.231;-0.0189209
3.232;-0.0167847
3.233;-0.0137329
3.234;-0.0100708
3.235;-0.00640869
3.236;-0.00244141
3.237;0.000915527
3.238;0.00396729
3.239;0.00701904
3.24;0.010376
3.241;0.0137329
3.242;0.0170898
3.243;0.0195312
3.244;0.0216675
3.245;0.0228882
3.246;0.0238037
3.247;0.0241089
3.248;0.0238037
3.249;0.0228882
3.25;0.0216675
3.251;0.0204468
3.252;0.0189209
3.253;0.017395
3.254;0.0161743
3.255;0.0149536
3.256;0.0134277
3.257;0.012207
3.258;0.0106812
3.259;0.00915527
3.26;0.00793457
3.261;0.00701904
3.262;0.00671387
3.263;0.00701904
3.264;0.00701904
3.265;0.00701904
3.266;0.00701904
3.267;0.00640869
3.268;0.00610352
3.269;0.00610352
3.27;0.00671387
3.271;0.00793457
3.272;0.00946045
3.273;0.0109863
3.274;0.0125122
3.275;0.0137329
3.276;0.0146484
3.277;0.0149536
3.278;0.0152588
3.279;0.0152588
3.28;0.0152588
3.281;0.0152588
3.282;0.0158691
3.283;0.0164795
3.284;0.0170898
3.285;0.0180054
3.286;0.0186157
3.287;0.0186157
3.288;0.0186157
3.289;0.0177002
3.29;0.0164795
3.291;0.0149536
3.292;0.0134277
3.293;0.0125122
3.294;0.0131226
3.295;0.0143433
3.296;0.0167847
3.297;0.0195312
3.298;0.0219727
3.299;0.0238037
3.3;0.0247192
3.301;0.0250244
3.302;0.0247192
3.303;0.0241089
3.304;0.0231934
3.305;0.0219727
3.306;0.0204468
3.307;0.0186157
3.308;0.0164795
3.309;0.0143433
3.31;0.0115967
3.311;0.00823975
3.312;0.00457764
3.313;0.000305176
3.314;-0.00427246
3.315;-0.00915527
3.316;-0.0140381
3.317;-0.0189209
3.318;-0.0244141
3.319;-0.0296021
3.32;-0.0341797
3.321;-0.0378418
3.322;-0.0402832
3.323;-0.0415039
3.324;-0.0415039
3.325;-0.0408936
3.326;-0.0402832
3.327;-0.0390625
3.328;-0.038147
3.329;-0.0372314
3.33;-0.0366211
3.331;-0.0357056
3.332;-0.0354004
3.333;-0.03479
3.334;-0.0338745
3.335;-0.032959
3.336;-0.0317383
3.337;-0.0305176
3.338;-0.0292969
3.339;-0.0280762
3.34;-0.0274658
3.341;-0.027771
3.342;-0.0283813
3.343;-0.0296021
3.344;-0.0311279
3.345;-0.0326538
3.346;-0.0341797
3.347;-0.0354004
3.348;-0.0366211
3.349;-0.0378418
3.35;-0.0384521
3.351;-0.0384521
3.352;-0.0378418
3.353;-0.0369263
3.354;-0.0354004
3.355;-0.0335693
3.356;-0.0314331
3.357;-0.0286865
3.358;-0.0247192
3.359;-0.0195312
3.36;-0.0128174
3.361;-0.00457764
3.362;0.00488281
3.363;0.0152588
3.364;0.0265503
3.365;0.0393677
3.366;0.0543213
3.367;0.0714111
3.368;0.0915527
3.369;0.114746
3.37;0.140991
3.371;0.170593
3.372;0.202637
3.373;0.237732
3.374;0.275574
3.375;0.316772
3.376;0.361328
3.377;0.409546
3.378;0.461731
3.379;0.517578
3.38;0.577087
3.381;0.640259
3.382;0.706787
3.383;0.776367
3.384;0.848083
3.385;0.920715
3.386;0.993652
3.387;1.06567
3.388;1.13464
3.389;1.19995
3.39;1.25977
3.391;1.31378
3.392;1.36017
3.393;1.39771
3.394;1.42548
3.395;1.44226
3.396;1.44592
3.397;1.43585
3.398;1.41113
3.399;1.37115
3.4;1.31683
3.401;1.24847
3.402;1.16638
3.403;1.07208
3.404;0.965881
3.405;0.85022
3.406;0.726929
3.407;0.59845
3.408;0.467834
3.409;0.33783
3.41;0.210571
3.411;0.0888062
3.412;-0.0265503
3.413;-0.133362
3.414;-0.231018
3.415;-0.318298
3.416;-0.394287
3.417;-0.458679
3.418;-0.510864
3.419;-0.550232
3.42;-0.577087
3.421;-0.591736
3.422;-0.595398
3.423;-0.588684
3.424;-0.57312
3.425;-0.549927
3.426;-0.52124
3.427;-0.488281
3.428;-0.452271
3.429;-0.414734
3.43;-0.377502
3.431;-0.341187
3.432;-0.307617
3.433;-0.276794
3.434;-0.249939
3.435;-0.22644
3.436;-0.206909
3.437;-0.19104
3.438;-0.178528
3.439;-0.168762
3.44;-0.161133
3.441;-0.155334
3.442;-0.150146
3.443;-0.145264
3.444;-0.140991
3.445;-0.136719
3.446;-0.133362
3.447;-0.13031
3.448;-0.128479
3.449;-0.126648
3.45;-0.125427
3.451;-0.123901
3.452;-0.122681
3.453;-0.12085
3.454;-0.119324
3.455;-0.117493
3.456;-0.115356
3.457;-0.11261
3.458;-0.109558
3.459;-0.106201
3.46;-0.102539
3.461;-0.0991821
3.462;-0.0964355
3.463;-0.0942993
3.464;-0.0933838
3.465;-0.0930786
3.466;-0.093689
3.467;-0.0949097
3.468;-0.0970459
3.469;-0.098877
3.47;-0.100708
3.471;-0.102234
3.472;-0.103455
3.473;-0.104065
3.474;-0.104675
3.475;-0.10498
3.476;-0.104675
3.477;-0.104675
3.478;-0.104675
3.479;-0.10437
3.48;-0.10437
3.481;-0.104065
3.482;-0.10376
3.483;-0.103455
3.484;-0.103149
3.485;-0.102844
3.486;-0.103149
3.487;-0.10376
3.488;-0.104675
3.489;-0.105591
3.49;-0.106506
3.491;-0.107422
3.492;-0.107727
3.493;-0.107727
3.494;-0.107117
3.495;-0.106506
3.496;-0.105286
3.497;-0.104065
3.498;-0.102844
3.499;-0.101929
3.5;-0.101013
3.501;-0.100403
3.502;-0.0997925
3.503;-0.098877
3.504;-0.0979614
3.505;-0.0970459
3.506;-0.0964355
3.507;-0.0958252
3.508;-0.09552
3.509;-0.0952148
3.51;-0.0946045
3.511;-0.0942993
3.512;-0.0939941
3.513;-0.0933838
3.514;-0.0930786
3.515;-0.0927734
3.516;-0.0924683
3.517;-0.0924683
3.518;-0.0924683
3.519;-0.0927734
3.52;-0.0933838
3.521;-0.0942993
3.522;-0.0958252
3.523;-0.0973511
3.524;-0.0985718
3.525;-0.098877
3.526;-0.0985718
3.527;-0.0970459
3.528;-0.0942993
3.529;-0.090332
3.53;-0.0854492
3.531;-0.0802612
3.532;-0.0753784
3.533;-0.0708008
3.534;-0.0674438
3.535;-0.0643921
3.536;-0.0619507
3.537;-0.0592041
3.538;-0.0561523
3.539;-0.0521851
3.54;-0.0476074
3.541;-0.0427246
3.542;-0.0378418
3.543;-0.0332642
3.544;-0.0286865
3.545;-0.0250244
3.546;-0.0219727
3.547;-0.0198364
3.548;-0.0183105
3.549;-0.017395
3.55;-0.0167847
3.551;-0.0167847
3.552;-0.0164795
3.553;-0.0164795
3.554;-0.0161743
3.555;-0.0158691
3.556;-0.0158691
3.557;-0.015564
3.558;-0.0158691
3.559;-0.0158691
3.56;-0.015564
3.561;-0.0149536
3.562;-0.0140381
3.563;-0.0125122
3.564;-0.0109863
3.565;-0.00915527
3.566;-0.00732422
3.567;-0.00549316
3.568;-0.00366211
3.569;-0.00213623
3.57;-0.000915527
3.571;-0.000305176
3.572;0.000610352
3.573;0.0012207
3.574;0.00213623
3.575;0.00305176
3.576;0.00396729
3.577;0.00518799
3.578;0.00671387
3.579;0.00823975
3.58;0.00946045
3.581;0.010376
3.582;0.0106812
3.583;0.0106812
3.584;0.0100708
3.585;0.00976562
3.586;0.00946045
3.587;0.00915527
3.588;0.00976562
3.589;0.0106812
3.59;0.0125122
3.591;0.0149536
3.592;0.0177002
3.593;0.0204468
3.594;0.0228882
3.595;0.0253296
3.596;0.0274658
3.597;0.0292969
3.598;0.0311279
3.599;0.032959
3.6;0.03479
3.601;0.0366211
3.602;0.0384521
3.603;0.0396729
3.604;0.0408936
3.605;0.0415039
3.606;0.0415039
3.607;0.0405884
3.608;0.0390625
3.609;0.0360107
3.61;0.0317383
3.611;0.0268555
3.612;0.0213623
3.613;0.015564
3.614;0.010376
3.615;0.00549316
3.616;0.000915527
3.617;-0.00305176
3.618;-0.00640869
3.619;-0.0088501
3.62;-0.010376
3.621;-0.0106812
3.622;-0.00976562
3.623;-0.00823975
3.624;-0.00610352
3.625;-0.00335693
3.626;-0.000305176
3.627;0.00305176
3.628;0.00640869
3.629;0.010376
3.63;0.0140381
3.631;0.017395
3.632;0.020752
3.633;0.0234985
3.634;0.0256348
3.635;0.0271606
3.636;0.0280762
3.637;0.0280762
3.638;0.0274658
3.639;0.0262451
3.64;0.0238037
3.641;0.020752
3.642;0.0164795
3.643;0.0119019
3.644;0.00640869
3.645;0.00152588
3.646;-0.00335693
3.647;-0.00732422
3.648;-0.0106812
3.649;-0.0128174
3.65;-0.0143433
3.651;-0.0158691
3.652;-0.0177002
3.653;-0.0192261
3.654;-0.0204468
3.655;-0.0216675
3.656;-0.0222778
3.657;-0.0228882
3.658;-0.0234985
3.659;-0.0238037
3.66;-0.0244141
3.661;-0.0253296
3.662;-0.0259399
3.663;-0.0271606
3.664;-0.0283813
3.665;-0.0292969
3.666;-0.0296021
3.667;-0.0296021
3.668;-0.0292969
3.669;-0.0286865
3.67;-0.0280762
3.671;-0.0274658
3.672;-0.0268555
3.673;-0.0262451
3.674;-0.0253296
3.675;-0.0247192
3.676;-0.0241089
3.677;-0.0234985
3.678;-0.0231934
3.679;-0.0228882
3.68;-0.022583
3.681;-0.022583
3.682;-0.022583
3.683;-0.0231934
3.684;-0.0238037
3.685;-0.0250244
3.686;-0.0259399
3.687;-0.0268555
3.688;-0.0280762
3.689;-0.0289917
3.69;-0.0296021
3.691;-0.0305176
3.692;-0.0314331
3.693;-0.0323486
3.694;-0.0326538
3.695;-0.0326538
3.696;-0.0320435
3.697;-0.0308228
3.698;-0.0292969
3.699;-0.0268555
3.7;-0.0241089
3.701;-0.0213623
3.702;-0.0183105
3.703;-0.015564
3.704;-0.0134277
3.705;-0.0115967
3.706;-0.010376
3.707;-0.00976562
3.708;-0.00976562
3.709;-0.010376
3.71;-0.0112915
3.711;-0.0125122
3.712;-0.0134277
3.713;-0.0143433
3.714;-0.0158691
3.715;-0.0180054
3.716;-0.020752
3.717;-0.0238037
3.718;-0.0274658
3.719;-0.0311279
3.72;-0.03479
3.721;-0.0378418
3.722;-0.0408936
3.723;-0.0430298
3.724;-0.0445557
3.725;-0.0454712
3.726;-0.0454712
3.727;-0.045166
3.728;-0.0445557
3.729;-0.0439453
3.73;-0.0436401
3.731;-0.0436401
3.732;-0.0439453
3.733;-0.0445557
3.734;-0.045166
3.735;-0.0454712
3.736;-0.0445557
3.737;-0.0424194
3.738;-0.0396729
3.739;-0.0369263
3.74;-0.0344849
3.741;-0.0326538
3.742;-0.0317383
3.743;-0.0320435
3.744;-0.0332642
3.745;-0.0344849
3.746;-0.03479
3.747;-0.0341797
3.748;-0.032959
3.749;-0.0311279
3.75;-0.0289917
3.751;-0.0271606
3.752;-0.0256348
3.753;-0.0244141
3.754;-0.0238037
3.755;-0.0241089
3.756;-0.0250244
3.757;-0.0259399
3.758;-0.0268555
3.759;-0.027771
3.76;-0.0286865
3.761;-0.0292969
3.762;-0.0302124
3.763;-0.0314331
3.764;-0.0323486
3.765;-0.032959
3.766;-0.0332642
3.767;-0.0326538
3.768;-0.0317383
3.769;-0.0299072
3.77;-0.027771
3.771;-0.0253296
3.772;-0.0228882
3.773;-0.020752
3.774;-0.0189209
3.775;-0.017395
3.776;-0.0158691
3.777;-0.0146484
3.778;-0.0137329
3.779;-0.0125122
3.78;-0.0119019
3.781;-0.0115967
3.782;-0.012207
3.783;-0.0131226
3.784;-0.0149536
3.785;-0.0170898
3.786;-0.0195312
3.787;-0.0222778
3.788;-0.0256348
3.789;-0.0296021
3.79;-0.0335693
3.791;-0.0378418
3.792;-0.0424194
3.793;-0.0469971
3.794;-0.0512695
3.795;-0.0552368
3.796;-0.0585938
3.797;-0.0610352
3.798;-0.0619507
3.799;-0.0619507
3.8;-0.0610352
3.801;-0.0595093
3.802;-0.0582886
3.803;-0.0570679
3.804;-0.0564575
3.805;-0.0558472
3.806;-0.0558472
3.807;-0.0561523
3.808;-0.0564575
3.809;-0.0564575
3.81;-0.0561523
3.811;-0.0558472
3.812;-0.0552368
3.813;-0.0549316
3.814;-0.0552368
3.815;-0.0558472
3.816;-0.0570679
3.817;-0.0582886
3.818;-0.0595093
3.819;-0.06073
3.82;-0.0619507
3.821;-0.0634766
3.822;-0.0643921
3.823;-0.0650024
3.824;-0.0653076
3.825;-0.0650024
3.826;-0.0643921
3.827;-0.0637817
3.828;-0.0628662
3.829;-0.0619507
3.83;-0.0613403
3.831;-0.0613403
3.832;-0.0613403
3.833;-0.0613403
3.834;-0.0610352
3.835;-0.0604248
3.836;-0.0595093
3.837;-0.0585938
3.838;-0.0579834
3.839;-0.0579834
3.84;-0.0592041
3.841;-0.06073
3.842;-0.0628662
3.843;-0.0640869
3.844;-0.0646973
3.845;-0.0637817
3.846;-0.0622559
3.847;-0.0601196
3.848;-0.0579834
3.849;-0.0561523
3.85;-0.0549316
3.851;-0.0540161
3.852;-0.0531006
3.853;-0.0524902
3.854;-0.0515747
3.855;-0.050354
3.856;-0.0491333
3.857;-0.0473022
3.858;-0.045166
3.859;-0.043335
3.86;-0.0418091
3.861;-0.0408936
3.862;-0.0405884
3.863;-0.0408936
3.864;-0.0421143
3.865;-0.0442505
3.866;-0.0466919
3.867;-0.0494385
3.868;-0.0524902
3.869;-0.0552368
3.87;-0.0579834
3.871;-0.06073
3.872;-0.0637817
3.873;-0.0671387
3.874;-0.0701904
3.875;-0.0732422
3.876;-0.0759888
3.877;-0.078125
3.878;-0.0802612
3.879;-0.0820923
3.88;-0.0839233
3.881;-0.0857544
3.882;-0.0875854
3.883;-0.0897217
3.884;-0.0921631
3.885;-0.0946045
3.886;-0.0967407
3.887;-0.098877
3.888;-0.101013
3.889;-0.102539
3.89;-0.103149
3.891;-0.102844
3.892;-0.101929
3.893;-0.101013
3.894;-0.0997925
3.895;-0.098877
3.896;-0.0979614
3.897;-0.0973511
3.898;-0.0964355
3.899;-0.0958252
3.9;-0.0949097
3.901;-0.0939941
3.902;-0.0930786
3.903;-0.0924683
3.904;-0.0918579
3.905;-0.0912476
3.906;-0.0906372
3.907;-0.0897217
3.908;-0.088501
3.909;-0.0875854
3.91;-0.0860596
3.911;-0.0848389
3.912;-0.0839233
3.913;-0.083313
3.914;-0.0827026
3.915;-0.0823975
3.916;-0.0823975
3.917;-0.0823975
3.918;-0.0820923
3.919;-0.0817871
3.92;-0.0808716
3.921;-0.0799561
3.922;-0.0784302
3.923;-0.0765991
3.924;-0.0744629
3.925;-0.072937
3.926;-0.0723267
3.927;-0.0726318
3.928;-0.0744629
3.929;-0.0769043
3.93;-0.0796509
3.931;-0.0820923
3.932;-0.0842285
3.933;-0.0854492
3.934;-0.0863647
3.935;-0.0869751
3.936;-0.0869751
3.937;-0.0866699
3.938;-0.0860596
3.939;-0.0854492
3.94;-0.0845337
3.941;-0.0836182
3.942;-0.0827026
3.943;-0.0808716
3.944;-0.0787354
3.945;-0.0759888
3.946;-0.0732422
3.947;-0.0704956
3.948;-0.0680542
3.949;-0.0656128
3.95;-0.0634766
3.951;-0.0613403
3.952;-0.0592041
3.953;-0.0567627
3.954;-0.0546265
3.955;-0.0531006
3.956;-0.0521851
3.957;-0.0518799
3.958;-0.0524902
3.959;-0.0534058
3.96;-0.0552368
3.961;-0.0585938
3.962;-0.0622559
3.963;-0.065918
3.964;-0.0686646
3.965;-0.0704956
3.966;-0.0708008
3.967;-0.0704956
3.968;-0.0695801
3.969;-0.0683594
3.97;-0.0668335
3.971;-0.0656128
3.972;-0.0643921
3.973;-0.062561
3.974;-0.0604248
3.975;-0.0579834
3.976;-0.0546265
3.977;-0.0512695
3.978;-0.0479126
3.979;-0.045166
3.98;-0.0430298
3.981;-0.0408936
3.982;-0.0387573
3.983;-0.0360107
3.984;-0.0326538
3.985;-0.0292969
3.986;-0.0262451
3.987;-0.0238037
3.988;-0.0219727
3.989;-0.0204468
3.99;-0.0189209
3.991;-0.0177002
3.992;-0.0164795
3.993;-0.0158691
3.994;-0.015564
3.995;-0.015564
3.996;-0.0158691
3.997;-0.0161743
3.998;-0.0167847
3.999;-0.017395
4;-0.0180054
4.001;-0.0180054
4.002;-0.0180054
4.003;-0.017395
4.004;-0.0164795
4.005;-0.0152588
4.006;-0.0140381
4.007;-0.0131226
4.008;-0.012207
4.009;-0.0119019
4.01;-0.012207
4.011;-0.012207
4.012;-0.0125122
4.013;-0.0125122
4.014;-0.012207
4.015;-0.012207
4.016;-0.0115967
4.017;-0.0109863
4.018;-0.00946045
4.019;-0.00793457
4.02;-0.00640869
4.021;-0.00488281
4.022;-0.00396729
4.023;-0.00366211
4.024;-0.00366211
4.025;-0.00427246
4.026;-0.00518799
4.027;-0.00671387
4.028;-0.00854492
4.029;-0.010376
4.03;-0.0115967
4.031;-0.0119019
4.032;-0.0115967
4.033;-0.0109863
4.034;-0.0109863
4.035;-0.0112915
4.036;-0.012207
4.037;-0.0137329
4.038;-0.015564
4.039;-0.0177002
4.04;-0.0198364
4.041;-0.0222778
4.042;-0.0244141
4.043;-0.0265503
4.044;-0.0289917
4.045;-0.0314331
4.046;-0.03479
4.047;-0.0384521
4.048;-0.0424194
4.049;-0.0466919
4.05;-0.050354
4.051;-0.0537109
4.052;-0.0570679
4.053;-0.0601196
4.054;-0.0631714
4.055;-0.0662231
4.056;-0.0689697
4.057;-0.0708008
4.058;-0.0723267
4.059;-0.072937
4.06;-0.072937
4.061;-0.0726318
4.062;-0.0717163
4.063;-0.071106
4.064;-0.0708008
4.065;-0.0701904
4.066;-0.0695801
4.067;-0.0689697
4.068;-0.0683594
4.069;-0.0683594
4.07;-0.0686646
4.071;-0.0692749
4.072;-0.0698853
4.073;-0.0704956
4.074;-0.0714111
4.075;-0.0723267
4.076;-0.0735474
4.077;-0.0744629
4.078;-0.0750732
4.079;-0.0759888
4.08;-0.0765991
4.081;-0.0772095
4.082;-0.0778198
4.083;-0.0778198
4.084;-0.078125
4.085;-0.0778198
4.086;-0.0769043
4.087;-0.0750732
4.088;-0.072937
4.089;-0.0708008
4.09;-0.0680542
4.091;-0.0656128
4.092;-0.0631714
4.093;-0.06073
4.094;-0.0579834
4.095;-0.0552368
4.096;-0.0518799
4.097;-0.0482178
4.098;-0.0442505
4.099;-0.0405884
4.1;-0.0366211
4.101;-0.0320435
4.102;-0.0265503
4.103;-0.0198364
4.104;-0.0119019
4.105;-0.00244141
4.106;0.00854492
4.107;0.0216675
4.108;0.0369263
4.109;0.0546265
4.11;0.0753784
4.111;0.0982666
4.112;0.124207
4.113;0.152893
4.114;0.184631
4.115;0.219421
4.116;0.257568
4.117;0.299377
4.118;0.345764
4.119;0.396118
4.12;0.451355
4.121;0.511475
4.122;0.575867
4.123;0.644531
4.124;0.716553
4.125;0.791016
4.126;0.866394
4.127;0.941162
4.128;1.0144
4.129;1.08459
4.13;1.15051
4.131;1.21033
4.132;1.26343
4.133;1.3089
4.134;1.34613
4.135;1.3739
4.136;1.39038
4.137;1.39496
4.138;1.3855
4.139;1.36108
4.14;1.32202
4.141;1.2674
4.142;1.19843
4.143;1.11511
4.144;1.01929
4.145;0.91217
4.146;0.796509
4.147;0.673523
4.148;0.546265
4.149;0.417175
4.15;0.289001
4.151;0.164185
4.152;0.0445557
4.153;-0.067749
4.154;-0.171814
4.155;-0.266113
4.156;-0.350342
4.157;-0.423279
4.158;-0.484314
4.159;-0.533142
4.16;-0.569763
4.161;-0.593872
4.162;-0.605774
4.163;-0.606384
4.164;-0.596924
4.165;-0.578613
4.166;-0.553589
4.167;-0.523682
4.168;-0.490723
4.169;-0.456543
4.17;-0.422058
4.171;-0.388489
4.172;-0.35614
4.173;-0.325623
4.174;-0.297241
4.175;-0.271301
4.176;-0.248413
4.177;-0.228577
4.178;-0.211487
4.179;-0.197449
4.18;-0.186157
4.181;-0.177002
4.182;-0.169373
4.183;-0.162964
4.184;-0.157776
4.185;-0.153503
4.186;-0.149841
4.187;-0.147095
4.188;-0.144348
4.189;-0.142212
4.19;-0.140076
4.191;-0.138245
4.192;-0.136719
4.193;-0.135498
4.194;-0.134583
4.195;-0.133972
4.196;-0.133972
4.197;-0.134583
4.198;-0.135193
4.199;-0.136414
4.2;-0.137939
4.201;-0.139465
4.202;-0.141296
4.203;-0.143127
4.204;-0.144348
4.205;-0.144653
4.206;-0.144653
4.207;-0.144043
4.208;-0.142822
4.209;-0.141602
4.21;-0.140076
4.211;-0.13855
4.212;-0.137024
4.213;-0.135498
4.214;-0.134583
4.215;-0.133667
4.216;-0.133057
4.217;-0.132141
4.218;-0.131226
4.219;-0.130005
4.22;-0.129089
4.221;-0.128479
4.222;-0.128479
4.223;-0.129395
4.224;-0.130615
4.225;-0.132751
4.226;-0.135498
4.227;-0.138245
4.228;-0.140991
4.229;-0.143127
4.23;-0.144348
4.231;-0.144958
4.232;-0.144653
4.233;-0.144043
4.234;-0.142822
4.235;-0.141296
4.236;-0.138855
4.237;-0.135803
4.238;-0.132751
4.239;-0.129395
4.24;-0.126038
4.241;-0.123291
4.242;-0.120544
4.243;-0.118408
4.244;-0.116577
4.245;-0.115356
4.246;-0.114441
4.247;-0.113831
4.248;-0.11322
4.249;-0.11261
4.25;-0.111694
4.251;-0.110474
4.252;-0.109253
4.253;-0.108032
4.254;-0.107117
4.255;-0.106812
4.256;-0.106812
4.257;-0.107117
4.258;-0.107422
4.259;-0.107727
4.26;-0.107727
4.261;-0.107117
4.262;-0.106201
4.263;-0.104675
4.264;-0.102844
4.265;-0.100098
4.266;-0.0976562
4.267;-0.0949097
4.268;-0.0921631
4.269;-0.0897217
4.27;-0.0872803
4.271;-0.085144
4.272;-0.0827026
4.273;-0.0805664
4.274;-0.0787354
4.275;-0.0775146
4.276;-0.0769043
4.277;-0.0762939
4.278;-0.0756836
4.279;-0.0747681
4.28;-0.0735474
4.281;-0.0717163
4.282;-0.0695801
4.283;-0.0671387
4.284;-0.0650024
4.285;-0.0631714
4.286;-0.0613403
4.287;-0.0592041
4.288;-0.057373
4.289;-0.055542
4.29;-0.0534058
4.291;-0.0512695
4.292;-0.0491333
4.293;-0.0466919
4.294;-0.0445557
4.295;-0.0424194
4.296;-0.0405884
4.297;-0.038147
4.298;-0.0360107
4.299;-0.0338745
4.3;-0.0320435
4.301;-0.0302124
4.302;-0.0292969
4.303;-0.0286865
4.304;-0.0286865
4.305;-0.0286865
4.306;-0.0283813
4.307;-0.027771
4.308;-0.0265503
4.309;-0.0244141
4.31;-0.0219727
4.311;-0.0198364
4.312;-0.0183105
4.313;-0.0170898
4.314;-0.0164795
4.315;-0.0161743
4.316;-0.0161743
4.317;-0.0158691
4.318;-0.0152588
4.319;-0.0143433
4.32;-0.0131226
4.321;-0.0119019
4.322;-0.0106812
4.323;-0.00946045
4.324;-0.00823975
4.325;-0.00701904
4.326;-0.00610352
4.327;-0.00549316
4.328;-0.00488281
4.329;-0.00427246
4.33;-0.00396729
4.331;-0.00335693
4.332;-0.00305176
4.333;-0.00274658
4.334;-0.00244141
4.335;-0.00152588
4.336;-0.000610352
4.337;0.000305176
4.338;0.000915527
4.339;0.00213623
4.34;0.00305176
4.341;0.00457764
4.342;0.00549316
4.343;0.00640869
4.344;0.00701904
4.345;0.00671387
4.346;0.00579834
4.347;0.00457764
4.348;0.00335693
4.349;0.00183105
4.35;0.000305176
4.351;-0.000915527
4.352;-0.00213623
4.353;-0.00305176
4.354;-0.00396729
4.355;-0.00518799
4.356;-0.00640869
4.357;-0.00762939
4.358;-0.0088501
4.359;-0.010376
4.36;-0.0119019
4.361;-0.0134277
4.362;-0.0149536
4.363;-0.0158691
4.364;-0.0167847
4.365;-0.0170898
4.366;-0.017395
4.367;-0.0183105
4.368;-0.0189209
4.369;-0.0198364
4.37;-0.0201416
4.371;-0.0201416
4.372;-0.0201416
4.373;-0.0198364
4.374;-0.0198364
4.375;-0.0201416
4.376;-0.0210571
4.377;-0.022583
4.378;-0.0244141
4.379;-0.0268555
4.38;-0.0292969
4.381;-0.0320435
4.382;-0.0341797
4.383;-0.0360107
4.384;-0.0372314
4.385;-0.0384521
4.386;-0.0396729
4.387;-0.0411987
4.388;-0.043335
4.389;-0.0457764
4.39;-0.0482178
4.391;-0.0509644
4.392;-0.0537109
4.393;-0.0561523
4.394;-0.0579834
4.395;-0.0588989
4.396;-0.0588989
4.397;-0.0582886
4.398;-0.0576782
4.399;-0.057373
4.4;-0.057373
4.401;-0.0579834
4.402;-0.0588989
4.403;-0.0598145
4.404;-0.0604248
4.405;-0.0601196
4.406;-0.0588989
4.407;-0.057373
4.408;-0.0558472
4.409;-0.0546265
4.41;-0.0537109
4.411;-0.0527954
4.412;-0.0521851
4.413;-0.0518799
4.414;-0.0509644
4.415;-0.0500488
4.416;-0.0491333
4.417;-0.0479126
4.418;-0.0473022
4.419;-0.0469971
4.42;-0.0469971
4.421;-0.0469971
4.422;-0.0473022
4.423;-0.0473022
4.424;-0.0473022
4.425;-0.0473022
4.426;-0.0473022
4.427;-0.0469971
4.428;-0.0466919
4.429;-0.0463867
4.43;-0.0460815
4.431;-0.0457764
4.432;-0.0457764
4.433;-0.0454712
4.434;-0.0448608
4.435;-0.0439453
4.436;-0.043335
4.437;-0.0430298
4.438;-0.043335
4.439;-0.0436401
4.44;-0.0442505
4.441;-0.0448608
4.442;-0.0454712
4.443;-0.0463867
4.444;-0.0476074
4.445;-0.0494385
4.446;-0.0512695
4.447;-0.0534058
4.448;-0.055542
4.449;-0.057373
4.45;-0.0585938
4.451;-0.0595093
4.452;-0.0604248
4.453;-0.0616455
4.454;-0.0628662
4.455;-0.0643921
4.456;-0.065918
4.457;-0.067749
4.458;-0.0695801
4.459;-0.0708008
4.46;-0.0717163
4.461;-0.0720215
4.462;-0.0720215
4.463;-0.0714111
4.464;-0.0708008
4.465;-0.0698853
4.466;-0.0689697
4.467;-0.0683594
4.468;-0.0674438
4.469;-0.0671387
4.47;-0.0665283
4.471;-0.0665283
4.472;-0.0665283
4.473;-0.0662231
4.474;-0.0656128
4.475;-0.0646973
4.476;-0.0637817
4.477;-0.0628662
4.478;-0.062561
4.479;-0.062561
4.48;-0.0628662
4.481;-0.0631714
4.482;-0.0631714
4.483;-0.0634766
4.484;-0.0634766
4.485;-0.0640869
4.486;-0.0646973
4.487;-0.0653076
4.488;-0.065918
4.489;-0.0668335
4.49;-0.0674438
4.491;-0.0680542
4.492;-0.0689697
4.493;-0.0701904
4.494;-0.0714111
4.495;-0.0726318
4.496;-0.0735474
4.497;-0.0744629
4.498;-0.0744629
4.499;-0.0741577
4.5;-0.0735474
4.501;-0.0726318
4.502;-0.0717163
4.503;-0.0708008
4.504;-0.0698853
4.505;-0.0692749
4.506;-0.0686646
4.507;-0.0680542
4.508;-0.0674438
4.509;-0.0668335
4.51;-0.065918
4.511;-0.0646973
4.512;-0.0628662
4.513;-0.0610352
4.514;-0.0588989
4.515;-0.0567627
4.516;-0.0546265
4.517;-0.0527954
4.518;-0.0515747
4.519;-0.0506592
4.52;-0.0500488
4.521;-0.050354
4.522;-0.0506592
4.523;-0.0512695
4.524;-0.0518799
4.525;-0.0524902
4.526;-0.0531006
4.527;-0.0543213
4.528;-0.055542
4.529;-0.0576782
4.53;-0.0601196
4.531;-0.0628662
4.532;-0.0656128
4.533;-0.0683594
4.534;-0.0708008
4.535;-0.072937
4.536;-0.0747681
4.537;-0.0762939
4.538;-0.0775146
4.539;-0.0784302
4.54;-0.0787354
4.541;-0.0784302
4.542;-0.0775146
4.543;-0.0765991
4.544;-0.0756836
4.545;-0.0744629
4.546;-0.072937
4.547;-0.0714111
4.548;-0.0701904
4.549;-0.0692749
4.55;-0.0692749
4.551;-0.0698853
4.552;-0.0714111
4.553;-0.0735474
4.554;-0.0756836
4.555;-0.078125
4.556;-0.0802612
4.557;-0.0820923
4.558;-0.0839233
4.559;-0.085144
4.56;-0.0860596
4.561;-0.0866699
4.562;-0.0872803
4.563;-0.0878906
4.564;-0.0878906
4.565;-0.0875854
4.566;-0.0866699
4.567;-0.0857544
4.568;-0.0842285
4.569;-0.0827026
4.57;-0.0808716
4.571;-0.0790405
4.572;-0.0775146
4.573;-0.0759888
4.574;-0.0747681
4.575;-0.0741577
4.576;-0.0738525
4.577;-0.0741577
4.578;-0.0753784
4.579;-0.0772095
4.58;-0.0793457
4.581;-0.0820923
4.582;-0.085144
4.583;-0.0881958
4.584;-0.0918579
4.585;-0.09552
4.586;-0.0991821
4.587;-0.103149
4.588;-0.106812
4.589;-0.110168
4.59;-0.11322
4.591;-0.115051
4.592;-0.115356
4.593;-0.114441
4.594;-0.112
4.595;-0.108643
4.596;-0.10498
4.597;-0.101013
4.598;-0.0970459
4.599;-0.0933838
4.6;-0.0900269
4.601;-0.0869751
4.602;-0.0842285
4.603;-0.0820923
4.604;-0.0802612
4.605;-0.0787354
4.606;-0.0772095
4.607;-0.0762939
4.608;-0.0753784
4.609;-0.0744629
4.61;-0.0741577
4.611;-0.0741577
4.612;-0.0750732
4.613;-0.0765991
4.614;-0.0793457
4.615;-0.0827026
4.616;-0.0863647
4.617;-0.0906372
4.618;-0.0946045
4.619;-0.0982666
4.62;-0.101318
4.621;-0.10376
4.622;-0.105591
4.623;-0.106506
4.624;-0.106812
4.625;-0.106812
4.626;-0.106506
4.627;-0.106506
4.628;-0.106506
4.629;-0.106812
4.63;-0.107117
4.631;-0.106812
4.632;-0.106201
4.633;-0.105591
4.634;-0.105286
4.635;-0.104675
4.636;-0.104065
4.637;-0.103149
4.638;-0.102234
4.639;-0.101013
4.64;-0.0997925
4.641;-0.0991821
4.642;-0.0991821
4.643;-0.0997925
4.644;-0.100403
4.645;-0.101318
4.646;-0.101929
4.647;-0.102539
4.648;-0.103149
4.649;-0.104065
4.65;-0.10498
4.651;-0.106812
4.652;-0.108643
4.653;-0.111084
4.654;-0.113525
4.655;-0.115662
4.656;-0.117188
4.657;-0.118103
4.658;-0.118408
4.659;-0.118713
4.66;-0.118713
4.661;-0.118713
4.662;-0.118408
4.663;-0.118408
4.664;-0.117798
4.665;-0.116577
4.666;-0.115051
4.667;-0.11322
4.668;-0.111084
4.669;-0.108948
4.67;-0.107117
4.671;-0.10498
4.672;-0.102844
4.673;-0.101013
4.674;-0.0997925
4.675;-0.0985718
4.676;-0.0979614
4.677;-0.0973511
4.678;-0.0970459
4.679;-0.0970459
4.68;-0.0979614
4.681;-0.0994873
4.682;-0.101318
4.683;-0.103455
4.684;-0.10498
4.685;-0.105896
4.686;-0.106506
4.687;-0.106506
4.688;-0.106812
4.689;-0.106812
4.69;-0.106812
4.691;-0.106812
4.692;-0.106812
4.693;-0.106812
4.694;-0.106201
4.695;-0.10498
4.696;-0.102234
4.697;-0.098877
4.698;-0.0952148
4.699;-0.0912476
4.7;-0.0881958
4.701;-0.0857544
4.702;-0.0842285
4.703;-0.083313
4.704;-0.0827026
4.705;-0.0820923
4.706;-0.0814819
4.707;-0.0811768
4.708;-0.0808716
4.709;-0.0808716
4.71;-0.0808716
4.711;-0.0805664
4.712;-0.0802612
4.713;-0.0796509
4.714;-0.0793457
4.715;-0.0790405
4.716;-0.0790405
4.717;-0.0790405
4.718;-0.0790405
4.719;-0.0790405
4.72;-0.0787354
4.721;-0.0778198
4.722;-0.0765991
4.723;-0.0753784
4.724;-0.0738525
4.725;-0.0723267
4.726;-0.071106
4.727;-0.0695801
4.728;-0.0680542
4.729;-0.0665283
4.73;-0.0653076
4.731;-0.0640869
4.732;-0.0628662
4.733;-0.0622559
4.734;-0.0622559
4.735;-0.0631714
4.736;-0.0640869
4.737;-0.0656128
4.738;-0.0665283
4.739;-0.0671387
4.74;-0.0671387
4.741;-0.0668335
4.742;-0.0662231
4.743;-0.0656128
4.744;-0.0650024
4.745;-0.0643921
4.746;-0.0640869
4.747;-0.0634766
4.748;-0.0628662
4.749;-0.0616455
4.75;-0.0604248
4.751;-0.0592041
4.752;-0.0579834
4.753;-0.0567627
4.754;-0.055542
4.755;-0.0546265
4.756;-0.0537109
4.757;-0.0531006
4.758;-0.0527954
4.759;-0.0531006
4.76;-0.0543213
4.761;-0.0558472
4.762;-0.0579834
4.763;-0.0610352
4.764;-0.0643921
4.765;-0.067749
4.766;-0.071106
4.767;-0.0741577
4.768;-0.0759888
4.769;-0.0765991
4.77;-0.0765991
4.771;-0.0759888
4.772;-0.0750732
4.773;-0.0741577
4.774;-0.0726318
4.775;-0.071106
4.776;-0.0689697
4.777;-0.0665283
4.778;-0.0637817
4.779;-0.0604248
4.78;-0.0567627
4.781;-0.0527954
4.782;-0.0491333
4.783;-0.0460815
4.784;-0.0445557
4.785;-0.0439453
4.786;-0.045166
4.787;-0.0476074
4.788;-0.0506592
4.789;-0.0537109
4.79;-0.0567627
4.791;-0.0595093
4.792;-0.0628662
4.793;-0.0665283
4.794;-0.071106
4.795;-0.0756836
4.796;-0.0802612
4.797;-0.0836182
4.798;-0.0854492
4.799;-0.0860596
4.8;-0.0854492
4.801;-0.0836182
4.802;-0.0811768
4.803;-0.078125
4.804;-0.0747681
4.805;-0.0714111
4.806;-0.0683594
4.807;-0.065918
4.808;-0.0637817
4.809;-0.0619507
4.81;-0.0604248
4.811;-0.0588989
4.812;-0.0579834
4.813;-0.057373
4.814;-0.057373
4.815;-0.0579834
4.816;-0.0598145
4.817;-0.0622559
4.818;-0.0656128
4.819;-0.0695801
4.82;-0.0741577
4.821;-0.0790405
4.822;-0.0842285
4.823;-0.0894165
4.824;-0.0939941
4.825;-0.0979614
4.826;-0.100708
4.827;-0.102539
4.828;-0.103149
4.829;-0.102539
4.83;-0.101318
4.831;-0.0994873
4.832;-0.0973511
4.833;-0.0952148
4.834;-0.0930786
4.835;-0.0909424
4.836;-0.0888062
4.837;-0.0869751
4.838;-0.0848389
4.839;-0.0830078
4.84;-0.0805664
4.841;-0.0775146
4.842;-0.0744629
4.843;-0.0704956
4.844;-0.0665283
4.845;-0.0619507
4.846;-0.0561523
4.847;-0.0491333
4.848;-0.0402832
4.849;-0.0289917
4.85;-0.015564
4.851;0.000610352
4.852;0.0192261
4.853;0.0405884
4.854;0.0646973
4.855;0.0921631
4.856;0.122986
4.857;0.157471
4.858;0.195312
4.859;0.236511
4.86;0.281372
4.861;0.3302
4.862;0.383606
4.863;0.441284
4.864;0.50354
4.865;0.570374
4.866;0.640869
4.867;0.714111
4.868;0.788879
4.869;0.863953
4.87;0.937805
4.871;1.00922
4.872;1.07666
4.873;1.13892
4.874;1.19507
4.875;1.24481
4.876;1.28815
4.877;1.32446
4.878;1.35284
4.879;1.37207
4.88;1.38062
4.881;1.37665
4.882;1.35834
4.883;1.32477
4.884;1.27502
4.885;1.20972
4.886;1.13007
4.887;1.03821
4.888;0.935974
4.889;0.826416
4.89;0.711365
4.891;0.592346
4.892;0.471497
4.893;0.349121
4.894;0.227356
4.895;0.107727
4.896;-0.00732422
4.897;-0.116272
4.898;-0.217285
4.899;-0.308838
4.9;-0.39032
4.901;-0.46051
4.902;-0.519714
4.903;-0.567017
4.904;-0.603027
4.905;-0.628052
4.906;-0.64209
4.907;-0.645447
4.908;-0.639954
4.909;-0.626221
4.91;-0.606079
4.911;-0.58075
4.912;-0.552063
4.913;-0.521545
4.914;-0.490112
4.915;-0.458679
4.916;-0.427551
4.917;-0.397949
4.918;-0.370178
4.919;-0.344238
4.92;-0.321045
4.921;-0.300293
4.922;-0.281677
4.923;-0.265503
4.924;-0.251465
4.925;-0.239563
4.926;-0.229187
4.927;-0.220947
4.928;-0.214233
4.929;-0.209045
4.93;-0.204773
4.931;-0.201721
4.932;-0.198975
4.933;-0.196838
4.934;-0.195007
4.935;-0.192566
4.936;-0.189819
4.937;-0.186462
4.938;-0.183105
4.939;-0.179749
4.94;-0.177002
4.941;-0.174561
4.942;-0.172424
4.943;-0.170898
4.944;-0.169067
4.945;-0.167542
4.946;-0.166016
4.947;-0.163879
4.948;-0.161743
4.949;-0.159302
4.95;-0.15686
4.951;-0.154724
4.952;-0.152893
4.953;-0.151978
4.954;-0.151672
4.955;-0.151978
4.956;-0.152588
4.957;-0.153198
4.958;-0.153809
4.959;-0.154724
4.96;-0.155945
4.961;-0.156555
4.962;-0.15686
4.963;-0.15686
4.964;-0.15625
4.965;-0.155334
4.966;-0.154114
4.967;-0.152283
4.968;-0.150757
4.969;-0.148621
4.97;-0.146484
4.971;-0.144043
4.972;-0.141296
4.973;-0.138245
4.974;-0.135193
4.975;-0.131836
4.976;-0.128479
4.977;-0.125732
4.978;-0.123291
4.979;-0.121765
4.98;-0.120544
4.981;-0.119629
4.982;-0.119019
4.983;-0.119019
4.984;-0.119019
4.985;-0.119324
4.986;-0.119934
4.987;-0.12085
4.988;-0.12207
4.989;-0.123291
4.99;-0.123596
4.991;-0.122986
4.992;-0.12207
4.993;-0.12085
4.994;-0.119629
4.995;-0.118408
4.996;-0.117493
4.997;-0.116577
4.998;-0.115051
4.999;-0.11322
5;-0.110779
5.001;-0.108032
5.002;-0.104675
5.003;-0.101624
5.004;-0.0982666
5.005;-0.0958252
5.006;-0.0939941
5.007;-0.0930786
5.008;-0.0921631
5.009;-0.0915527
5.01;-0.0909424
5.011;-0.090332
5.012;-0.0897217
5.013;-0.0891113
5.014;-0.088501
5.015;-0.0881958
5.016;-0.0878906
5.017;-0.0875854
5.018;-0.0872803
5.019;-0.0869751
5.02;-0.0863647
5.021;-0.0854492
5.022;-0.0842285
5.023;-0.0830078
5.024;-0.0817871
5.025;-0.0805664
5.026;-0.0793457
5.027;-0.0775146
5.028;-0.0759888
5.029;-0.0747681
5.03;-0.0738525
5.031;-0.0735474
5.032;-0.0738525
5.033;-0.0747681
5.034;-0.0753784
5.035;-0.0759888
5.036;-0.0762939
5.037;-0.0765991
5.038;-0.0762939
5.039;-0.0756836
5.04;-0.0747681
5.041;-0.0738525
5.042;-0.0726318
5.043;-0.0714111
5.044;-0.0698853
5.045;-0.0683594
5.046;-0.0668335
5.047;-0.0653076
5.048;-0.0640869
5.049;-0.0628662
5.05;-0.0616455
5.051;-0.0604248
5.052;-0.0582886
5.053;-0.055542
5.054;-0.0521851
5.055;-0.0485229
5.056;-0.0454712
5.057;-0.043335
5.058;-0.0415039
5.059;-0.0402832
5.06;-0.0393677
5.061;-0.0384521
5.062;-0.0369263
5.063;-0.03479
5.064;-0.0323486
5.065;-0.0296021
5.066;-0.0265503
5.067;-0.0231934
5.068;-0.0201416
5.069;-0.0170898
5.07;-0.0143433
5.071;-0.0112915
5.072;-0.0088501
5.073;-0.00640869
5.074;-0.00457764
5.075;-0.00335693
5.076;-0.00274658
5.077;-0.00213623
5.078;-0.00213623
5.079;-0.00213623
5.08;-0.00244141
5.081;-0.00305176
5.082;-0.00366211
5.083;-0.00457764
5.084;-0.00579834
5.085;-0.00701904
5.086;-0.00793457
5.087;-0.0088501
5.088;-0.00976562
5.089;-0.0109863
5.09;-0.0128174
5.091;-0.0149536
5.092;-0.0183105
5.093;-0.022583
5.094;-0.0274658
5.095;-0.0323486
5.096;-0.0366211
5.097;-0.0387573
5.098;-0.0393677
5.099;-0.038147
5.1;-0.0363159
5.101;-0.0338745
5.102;-0.0314331
5.103;-0.0292969
5.104;-0.0274658
5.105;-0.0259399
5.106;-0.0244141
5.107;-0.0228882
5.108;-0.0210571
5.109;-0.0186157
5.11;-0.015564
5.111;-0.012207
5.112;-0.0088501
5.113;-0.00579834
5.114;-0.00274658
5.115;-0.000305176
5.116;0.00152588
5.117;0.00274658
5.118;0.00335693
5.119;0.00274658
5.12;0.000610352
5.121;-0.00244141
5.122;-0.00671387
5.123;-0.0115967
5.124;-0.0170898
5.125;-0.0228882
5.126;-0.0292969
5.127;-0.0357056
5.128;-0.0424194
5.129;-0.0485229
5.13;-0.0537109
5.131;-0.057373
5.132;-0.0598145
5.133;-0.0610352
5.134;-0.0613403
5.135;-0.0613403
5.136;-0.06073
5.137;-0.0598145
5.138;-0.0588989
5.139;-0.057373
5.14;-0.0558472
5.141;-0.0543213
5.142;-0.0524902
5.143;-0.050354
5.144;-0.0482178
5.145;-0.0457764
5.146;-0.0430298
5.147;-0.0405884
5.148;-0.0384521
5.149;-0.0366211
5.15;-0.0354004
5.151;-0.03479
5.152;-0.03479
5.153;-0.0357056
5.154;-0.0369263
5.155;-0.0387573
5.156;-0.0402832
5.157;-0.0418091
5.158;-0.043335
5.159;-0.0445557
5.16;-0.0454712
5.161;-0.0466919
5.162;-0.0482178
5.163;-0.0497437
5.164;-0.0515747
5.165;-0.0527954
5.166;-0.0534058
5.167;-0.0534058
5.168;-0.0527954
5.169;-0.0518799
5.17;-0.0509644
5.171;-0.0497437
5.172;-0.0488281
5.173;-0.0482178
5.174;-0.0479126
5.175;-0.0479126
5.176;-0.0476074
5.177;-0.0473022
5.178;-0.0469971
5.179;-0.0463867
5.18;-0.0457764
5.181;-0.0448608
5.182;-0.0436401
5.183;-0.0427246
5.184;-0.0421143
5.185;-0.0418091
5.186;-0.0418091
5.187;-0.0427246
5.188;-0.0445557
5.189;-0.0463867
5.19;-0.0485229
5.191;-0.0494385
5.192;-0.0491333
5.193;-0.0476074
5.194;-0.0457764
5.195;-0.0436401
5.196;-0.0421143
5.197;-0.0415039
5.198;-0.0415039
5.199;-0.0427246
5.2;-0.0442505
5.201;-0.0457764
5.202;-0.0466919
5.203;-0.0466919
5.204;-0.0454712
5.205;-0.0436401
5.206;-0.0411987
5.207;-0.0390625
5.208;-0.0372314
5.209;-0.0363159
5.21;-0.0357056
5.211;-0.0360107
5.212;-0.0369263
5.213;-0.038147
5.214;-0.039978
5.215;-0.0421143
5.216;-0.0448608
5.217;-0.0476074
5.218;-0.0500488
5.219;-0.0518799
5.22;-0.0531006
5.221;-0.0540161
5.222;-0.0543213
5.223;-0.0543213
5.224;-0.0543213
5.225;-0.0543213
5.226;-0.0549316
5.227;-0.0561523
5.228;-0.0579834
5.229;-0.0604248
5.23;-0.0628662
5.231;-0.0646973
5.232;-0.0653076
5.233;-0.0650024
5.234;-0.0643921
5.235;-0.0634766
5.236;-0.0628662
5.237;-0.0622559
5.238;-0.0616455
5.239;-0.0610352
5.24;-0.0604248
5.241;-0.0598145
5.242;-0.0592041
5.243;-0.0585938
5.244;-0.0579834
5.245;-0.057373
5.246;-0.0567627
5.247;-0.0561523
5.248;-0.0558472
5.249;-0.0558472
5.25;-0.0552368
5.251;-0.0543213
5.252;-0.0531006
5.253;-0.0518799
5.254;-0.050354
5.255;-0.0491333
5.256;-0.0476074
5.257;-0.0460815
5.258;-0.0445557
5.259;-0.0430298
5.26;-0.0418091
5.261;-0.0408936
5.262;-0.0402832
5.263;-0.039978
5.264;-0.0393677
5.265;-0.0384521
5.266;-0.0375366
5.267;-0.0369263
5.268;-0.0363159
5.269;-0.0366211
5.27;-0.0372314
5.271;-0.0384521
5.272;-0.0396729
5.273;-0.0411987
5.274;-0.0421143
5.275;-0.0430298
5.276;-0.0439453
5.277;-0.045166
5.278;-0.0463867
5.279;-0.0479126
5.28;-0.0491333
5.281;-0.0506592
5.282;-0.0521851
5.283;-0.0543213
5.284;-0.0564575
5.285;-0.0592041
5.286;-0.0619507
5.287;-0.0646973
5.288;-0.0665283
5.289;-0.0668335
5.29;-0.065918
5.291;-0.0634766
5.292;-0.0604248
5.293;-0.0570679
5.294;-0.0543213
5.295;-0.0521851
5.296;-0.0509644
5.297;-0.0500488
5.298;-0.0491333
5.299;-0.0485229
5.3;-0.0476074
5.301;-0.0463867
5.302;-0.0445557
5.303;-0.0430298
5.304;-0.0418091
5.305;-0.0411987
5.306;-0.0415039
5.307;-0.0424194
5.308;-0.0442505
5.309;-0.0469971
5.31;-0.0500488
5.311;-0.0527954
5.312;-0.055542
5.313;-0.0576782
5.314;-0.0595093
5.315;-0.0613403
5.316;-0.062561
5.317;-0.0640869
5.318;-0.0656128
5.319;-0.0668335
5.32;-0.0674438
5.321;-0.0671387
5.322;-0.0665283
5.323;-0.0650024
5.324;-0.0631714
5.325;-0.0610352
5.326;-0.0588989
5.327;-0.0570679
5.328;-0.055542
5.329;-0.0546265
5.33;-0.0537109
5.331;-0.0531006
5.332;-0.0527954
5.333;-0.0534058
5.334;-0.0549316
5.335;-0.0570679
5.336;-0.0592041
5.337;-0.0619507
5.338;-0.0650024
5.339;-0.0683594
5.34;-0.0720215
5.341;-0.0759888
5.342;-0.0799561
5.343;-0.0839233
5.344;-0.0875854
5.345;-0.0906372
5.346;-0.0930786
5.347;-0.0949097
5.348;-0.0967407
5.349;-0.0979614
5.35;-0.0985718
5.351;-0.0991821
5.352;-0.0991821
5.353;-0.0994873
5.354;-0.0997925
5.355;-0.0997925
5.356;-0.0991821
5.357;-0.0979614
5.358;-0.0958252
5.359;-0.093689
5.36;-0.0915527
5.361;-0.0897217
5.362;-0.0881958
5.363;-0.0863647
5.364;-0.085144
5.365;-0.0839233
5.366;-0.0830078
5.367;-0.0827026
5.368;-0.0830078
5.369;-0.0836182
5.37;-0.0842285
5.371;-0.0845337
5.372;-0.0842285
5.373;-0.083313
5.374;-0.0827026
5.375;-0.0823975
5.376;-0.0823975
5.377;-0.0827026
5.378;-0.0823975
5.379;-0.0820923
5.38;-0.0817871
5.381;-0.0817871
5.382;-0.0817871
5.383;-0.0817871
5.384;-0.0814819
5.385;-0.0805664
5.386;-0.0790405
5.387;-0.0772095
5.388;-0.0750732
5.389;-0.0723267
5.39;-0.0695801
5.391;-0.0668335
5.392;-0.0650024
5.393;-0.0640869
5.394;-0.0637817
5.395;-0.0637817
5.396;-0.0640869
5.397;-0.0643921
5.398;-0.0643921
5.399;-0.0646973
5.4;-0.0650024
5.401;-0.0653076
5.402;-0.065918
5.403;-0.0671387
5.404;-0.0692749
5.405;-0.0723267
5.406;-0.0753784
5.407;-0.0784302
5.408;-0.0814819
5.409;-0.0839233
5.41;-0.0857544
5.411;-0.0869751
5.412;-0.0872803
5.413;-0.0872803
5.414;-0.0869751
5.415;-0.0863647
5.416;-0.0857544
5.417;-0.0848389
5.418;-0.0836182
5.419;-0.0823975
5.42;-0.0811768
5.421;-0.0799561
5.422;-0.0787354
5.423;-0.0772095
5.424;-0.0756836
5.425;-0.0738525
5.426;-0.0720215
5.427;-0.0698853
5.428;-0.067749
5.429;-0.065918
5.43;-0.0646973
5.431;-0.0640869
5.432;-0.0643921
5.433;-0.0653076
5.434;-0.0668335
5.435;-0.0686646
5.436;-0.0708008
5.437;-0.0726318
5.438;-0.0741577
5.439;-0.0753784
5.44;-0.0762939
5.441;-0.0775146
5.442;-0.078125
5.443;-0.0787354
5.444;-0.0787354
5.445;-0.078125
5.446;-0.0772095
5.447;-0.0759888
5.448;-0.0750732
5.449;-0.0738525
5.45;-0.0720215
5.451;-0.0695801
5.452;-0.0665283
5.453;-0.0631714
5.454;-0.0604248
5.455;-0.0582886
5.456;-0.0564575
5.457;-0.0549316
5.458;-0.0534058
5.459;-0.0515747
5.46;-0.0497437
5.461;-0.0479126
5.462;-0.0463867
5.463;-0.0448608
5.464;-0.0436401
5.465;-0.0427246
5.466;-0.0418091
5.467;-0.0411987
5.468;-0.0411987
5.469;-0.0411987
5.47;-0.0411987
5.471;-0.0415039
5.472;-0.0421143
5.473;-0.0427246
5.474;-0.0436401
5.475;-0.0442505
5.476;-0.0448608
5.477;-0.0454712
5.478;-0.0460815
5.479;-0.0466919
5.48;-0.0479126
5.481;-0.0491333
5.482;-0.050354
5.483;-0.0512695
5.484;-0.0518799
5.485;-0.0524902
5.486;-0.0527954
5.487;-0.0527954
5.488;-0.0524902
5.489;-0.0518799
5.49;-0.0506592
5.491;-0.0491333
5.492;-0.0476074
5.493;-0.0454712
5.494;-0.043335
5.495;-0.0408936
5.496;-0.038147
5.497;-0.0357056
5.498;-0.0332642
5.499;-0.0320435
5.5;-0.0320435
5.501;-0.0326538
5.502;-0.0335693
5.503;-0.0344849
5.504;-0.0350952
5.505;-0.0354004
5.506;-0.0360107
5.507;-0.0366211
5.508;-0.0378418
5.509;-0.039978
5.51;-0.0427246
5.511;-0.0457764
5.512;-0.0494385
5.513;-0.0534058
5.514;-0.0570679
5.515;-0.06073
5.516;-0.0637817
5.517;-0.065918
5.518;-0.0668335
5.519;-0.0671387
5.52;-0.0671387
5.521;-0.0668335
5.522;-0.0665283
5.523;-0.065918
5.524;-0.0650024
5.525;-0.0650024
5.526;-0.0653076
5.527;-0.065918
5.528;-0.0668335
5.529;-0.0674438
5.53;-0.0674438
5.531;-0.067749
5.532;-0.0680542
5.533;-0.0689697
5.534;-0.0708008
5.535;-0.072937
5.536;-0.0756836
5.537;-0.0784302
5.538;-0.0805664
5.539;-0.0820923
5.54;-0.0823975
5.541;-0.0820923
5.542;-0.0811768
5.543;-0.0793457
5.544;-0.0775146
5.545;-0.0753784
5.546;-0.072937
5.547;-0.0704956
5.548;-0.067749
5.549;-0.0650024
5.55;-0.0619507
5.551;-0.0588989
5.552;-0.0552368
5.553;-0.0512695
5.554;-0.0466919
5.555;-0.0424194
5.556;-0.038147
5.557;-0.0338745
5.558;-0.0296021
5.559;-0.0253296
5.56;-0.0210571
5.561;-0.0167847
5.562;-0.0125122
5.563;-0.00823975
5.564;-0.00366211
5.565;0.00244141
5.566;0.0100708
5.567;0.0201416
5.568;0.0332642
5.569;0.0497437
5.57;0.0698853
5.571;0.0949097
5.572;0.124207
5.573;0.158691
5.574;0.197754
5.575;0.241089
5.576;0.288391
5.577;0.339661
5.578;0.394897
5.579;0.454712
5.58;0.519104
5.581;0.587769
5.582;0.65979
5.583;0.734863
5.584;0.812378
5.585;0.890808
5.586;0.969238
5.587;1.04584
5.588;1.11877
5.589;1.18652
5.59;1.24786
5.591;1.30127
5.592;1.34674
5.593;1.38367
5.594;1.41144
5.595;1.42944
5.596;1.43707
5.597;1.4328
5.598;1.41571
5.599;1.38489
5.6;1.34003
5.601;1.28113
5.602;1.2085
5.603;1.12274
5.604;1.0257
5.605;0.918884
5.606;0.804749
5.607;0.686035
5.608;0.56427
5.609;0.441589
5.61;0.319519
5.611;0.199585
5.612;0.083313
5.613;-0.0283813
5.614;-0.133667
5.615;-0.231018
5.616;-0.319214
5.617;-0.397644
5.618;-0.465393
5.619;-0.522156
5.62;-0.568237
5.621;-0.603027
5.622;-0.627136
5.623;-0.640564
5.624;-0.644226
5.625;-0.639038
5.626;-0.626221
5.627;-0.6073
5.628;-0.583496
5.629;-0.55603
5.63;-0.526428
5.631;-0.495911
5.632;-0.465088
5.633;-0.434875
5.634;-0.405273
5.635;-0.376892
5.636;-0.350037
5.637;-0.325012
5.638;-0.302124
5.639;-0.281677
5.64;-0.263672
5.641;-0.248108
5.642;-0.23468
5.643;-0.223083
5.644;-0.213013
5.645;-0.204468
5.646;-0.196533
5.647;-0.189514
5.648;-0.183411
5.649;-0.177612
5.65;-0.172119
5.651;-0.166931
5.652;-0.162048
5.653;-0.158081
5.654;-0.154419
5.655;-0.151367
5.656;-0.148621
5.657;-0.146484
5.658;-0.144653
5.659;-0.142212
5.66;-0.139771
5.661;-0.137024
5.662;-0.134277
5.663;-0.131531
5.664;-0.129089
5.665;-0.126953
5.666;-0.124817
5.667;-0.123291
5.668;-0.122375
5.669;-0.121765
5.67;-0.121155
5.671;-0.120239
5.672;-0.118408
5.673;-0.116882
5.674;-0.115356
5.675;-0.114441
5.676;-0.113831
5.677;-0.11322
5.678;-0.112305
5.679;-0.111389
5.68;-0.109558
5.681;-0.107422
5.682;-0.105286
5.683;-0.103455
5.684;-0.101624
5.685;-0.100403
5.686;-0.0994873
5.687;-0.0985718
5.688;-0.0979614
5.689;-0.0973511
5.69;-0.0967407
5.691;-0.0961304
5.692;-0.09552
5.693;-0.0952148
5.694;-0.0952148
5.695;-0.09552
5.696;-0.0964355
5.697;-0.0976562
5.698;-0.0994873
5.699;-0.101013
5.7;-0.102539
5.701;-0.103455
5.702;-0.103455
5.703;-0.103149
5.704;-0.102844
5.705;-0.102844
5.706;-0.103149
5.707;-0.103455
5.708;-0.103149
5.709;-0.102539
5.71;-0.101318
5.711;-0.0991821
5.712;-0.0964355
5.713;-0.0933838
5.714;-0.0906372
5.715;-0.0881958
5.716;-0.0860596
5.717;-0.0842285
5.718;-0.0823975
5.719;-0.0802612
5.72;-0.078125
5.721;-0.0756836
5.722;-0.0735474
5.723;-0.0714111
5.724;-0.0695801
5.725;-0.0683594
5.726;-0.0680542
5.727;-0.0686646
5.728;-0.0701904
5.729;-0.0726318
5.73;-0.0756836
5.731;-0.0784302
5.732;-0.0811768
5.733;-0.083313
5.734;-0.0845337
5.735;-0.0845337
5.736;-0.0842285
5.737;-0.0830078
5.738;-0.0814819
5.739;-0.0787354
5.74;-0.0756836
5.741;-0.0726318
5.742;-0.0689697
5.743;-0.0656128
5.744;-0.0619507
5.745;-0.0582886
5.746;-0.0546265
5.747;-0.0506592
5.748;-0.0469971
5.749;-0.0436401
5.75;-0.0405884
5.751;-0.0378418
5.752;-0.0357056
5.753;-0.0338745
5.754;-0.0323486
5.755;-0.0317383
5.756;-0.0317383
5.757;-0.0323486
5.758;-0.0335693
5.759;-0.0350952
5.76;-0.0369263
5.761;-0.0387573
5.762;-0.039978
5.763;-0.0405884
5.764;-0.039978
5.765;-0.0387573
5.766;-0.0372314
5.767;-0.0354004
5.768;-0.0338745
5.769;-0.0320435
5.77;-0.0302124
5.771;-0.0280762
5.772;-0.0253296
5.773;-0.0222778
5.774;-0.0186157
5.775;-0.0149536
5.776;-0.0112915
5.777;-0.00793457
5.778;-0.00518799
5.779;-0.00305176
5.78;-0.0012207
5.781;0
5.782;0.000610352
5.783;0.0012207
5.784;0.0012207
5.785;0.0012207
5.786;0.000915527
5.787;0.0012207
5.788;0.00152588
5.789;0.00244141
5.79;0.00366211
5.791;0.00457764
5.792;0.00579834
5.793;0.00671387
5.794;0.00732422
5.795;0.00762939
5.796;0.00793457
5.797;0.00762939
5.798;0.00762939
5.799;0.00793457
5.8;0.00823975
5.801;0.00854492
5.802;0.00946045
5.803;0.010376
5.804;0.0112915
5.805;0.0119019
5.806;0.0125122
5.807;0.0128174
5.808;0.0131226
5.809;0.0131226
5.81;0.0125122
5.811;0.0119019
5.812;0.0115967
5.813;0.0106812
5.814;0.00976562
5.815;0.00823975
5.816;0.00671387
5.817;0.00488281
5.818;0.00335693
5.819;0.00213623
5.82;0.000915527
5.821;-0.000305176
5.822;-0.00183105
5.823;-0.00335693
5.824;-0.00518799
5.825;-0.00671387
5.826;-0.00854492
5.827;-0.0100708
5.828;-0.0112915
5.829;-0.012207
5.83;-0.0131226
5.831;-0.0140381
5.832;-0.0152588
5.833;-0.0164795
5.834;-0.0183105
5.835;-0.0198364
5.836;-0.0216675
5.837;-0.0228882
5.838;-0.0238037
5.839;-0.0241089
5.84;-0.0244141
5.841;-0.0244141
5.842;-0.0241089
5.843;-0.0241089
5.844;-0.0244141
5.845;-0.0250244
5.846;-0.0259399
5.847;-0.0271606
5.848;-0.0286865
5.849;-0.0299072
5.85;-0.0308228
5.851;-0.0311279
5.852;-0.0311279
5.853;-0.0314331
5.854;-0.0320435
5.855;-0.0326538
5.856;-0.0332642
5.857;-0.0335693
5.858;-0.0338745
5.859;-0.0335693
5.86;-0.0323486
5.861;-0.0305176
5.862;-0.0280762
5.863;-0.0259399
5.864;-0.0241089
5.865;-0.022583
5.866;-0.0213623
5.867;-0.0204468
5.868;-0.0192261
5.869;-0.0180054
5.87;-0.0164795
5.871;-0.0152588
5.872;-0.0146484
5.873;-0.0140381
5.874;-0.0134277
5.875;-0.0128174
5.876;-0.0119019
5.877;-0.0106812
5.878;-0.00946045
5.879;-0.0088501
5.88;-0.0088501
5.881;-0.00946045
5.882;-0.010376
5.883;-0.0112915
5.884;-0.012207
5.885;-0.012207
5.886;-0.0115967
5.887;-0.0100708
5.888;-0.00823975
5.889;-0.00610352
5.89;-0.00396729
5.891;-0.00213623
5.892;-0.000305176
5.893;0.0012207
5.894;0.00274658
5.895;0.00366211
5.896;0.00427246
5.897;0.00427246
5.898;0.00396729
5.899;0.00335693
5.9;0.00274658
5.901;0.00183105
5.902;0.0012207
5.903;0.000915527
5.904;0.000305176
5.905;0
5.906;-0.000305176
5.907;-0.000915527
5.908;-0.00183105
5.909;-0.00274658
5.91;-0.00366211
5.911;-0.00396729
5.912;-0.00427246
5.913;-0.00457764
5.914;-0.00488281
5.915;-0.00579834
5.916;-0.00671387
5.917;-0.00762939
5.918;-0.00854492
5.919;-0.0088501
5.92;-0.00915527
5.921;-0.00915527
5.922;-0.00976562
5.923;-0.0112915
5.924;-0.0134277
5.925;-0.0161743
5.926;-0.0189209
5.927;-0.0210571
5.928;-0.0222778
5.929;-0.022583
5.93;-0.0219727
5.931;-0.0213623
5.932;-0.0204468
5.933;-0.0192261
5.934;-0.0183105
5.935;-0.0170898
5.936;-0.0158691
5.937;-0.0143433
5.938;-0.012207
5.939;-0.0100708
5.94;-0.00793457
5.941;-0.00610352
5.942;-0.00457764
5.943;-0.00396729
5.944;-0.00335693
5.945;-0.00305176
5.946;-0.00305176
5.947;-0.00274658
5.948;-0.00244141
5.949;-0.00244141
5.95;-0.00244141
5.951;-0.00305176
5.952;-0.00457764
5.953;-0.00640869
5.954;-0.00854492
5.955;-0.0100708
5.956;-0.0115967
5.957;-0.012207
5.958;-0.0128174
5.959;-0.0134277
5.96;-0.0140381
5.961;-0.0152588
5.962;-0.0177002
5.963;-0.0210571
5.964;-0.0247192
5.965;-0.0286865
5.966;-0.0314331
5.967;-0.032959
5.968;-0.0326538
5.969;-0.0305176
5.97;-0.0274658
5.971;-0.0241089
5.972;-0.0210571
5.973;-0.0180054
5.974;-0.0152588
5.975;-0.0119019
5.976;-0.00823975
5.977;-0.00427246
5.978;0.000305176
5.979;0.00457764
5.98;0.00946045
5.981;0.0146484
5.982;0.0198364
5.983;0.0247192
5.984;0.0289917
5.985;0.0323486
5.986;0.0341797
5.987;0.0344849
5.988;0.0326538
5.989;0.0296021
5.99;0.0256348
5.991;0.0213623
5.992;0.017395
5.993;0.0137329
5.994;0.010376
5.995;0.00671387
5.996;0.00305176
5.997;-0.000915527
5.998;-0.00518799
5.999;-0.00854492
6;-0.0112915
6.001;-0.0128174
6.002;-0.0131226
6.003;-0.0125122
6.004;-0.0112915
6.005;-0.00915527
6.006;-0.00671387
6.007;-0.00396729
6.008;-0.00152588
6.009;0.000610352
6.01;0.00244141
6.011;0.00366211
6.012;0.00427246
6.013;0.00457764
6.014;0.00396729
6.015;0.00335693
6.016;0.00244141
6.017;0.00183105
6.018;0.0012207
6.019;0.000915527
6.02;0.000305176
6.021;-0.000610352
6.022;-0.00183105
6.023;-0.00335693
6.024;-0.00488281
6.025;-0.00640869
6.026;-0.00823975
6.027;-0.00976562
6.028;-0.0115967
6.029;-0.0131226
6.03;-0.0143433
6.031;-0.0152588
6.032;-0.0161743
6.033;-0.0167847
6.034;-0.017395
6.035;-0.0177002
6.036;-0.0183105
6.037;-0.0189209
6.038;-0.0195312
6.039;-0.0201416
6.04;-0.020752
6.041;-0.0210571
6.042;-0.0213623
6.043;-0.0216675
6.044;-0.0216675
6.045;-0.020752
6.046;-0.0195312
6.047;-0.0180054
6.048;-0.0164795
6.049;-0.0149536
6.05;-0.0137329
6.051;-0.012207
6.052;-0.010376
6.053;-0.00854492
6.054;-0.00701904
6.055;-0.00549316
6.056;-0.00488281
6.057;-0.00488281
6.058;-0.00518799
6.059;-0.00610352
6.06;-0.00732422
6.061;-0.0088501
6.062;-0.010376
6.063;-0.012207
6.064;-0.0140381
6.065;-0.0164795
6.066;-0.0189209
6.067;-0.0213623
6.068;-0.0238037
6.069;-0.0262451
6.07;-0.0280762
6.071;-0.0302124
6.072;-0.0317383
6.073;-0.0332642
6.074;-0.0338745
6.075;-0.0338745
6.076;-0.0332642
6.077;-0.0320435
6.078;-0.0308228
6.079;-0.0296021
6.08;-0.0280762
6.081;-0.0271606
6.082;-0.0262451
6.083;-0.0262451
6.084;-0.0265503
6.085;-0.0265503
6.086;-0.0262451
6.087;-0.0250244
6.088;-0.0241089
6.089;-0.0228882
6.09;-0.0222778
6.091;-0.022583
6.092;-0.0234985
6.093;-0.0256348
6.094;-0.027771
6.095;-0.0305176
6.096;-0.0326538
6.097;-0.0344849
6.098;-0.0360107
6.099;-0.0366211
6.1;-0.0375366
6.101;-0.0384521
6.102;-0.0393677
6.103;-0.039978
6.104;-0.0402832
6.105;-0.039978
6.106;-0.0396729
6.107;-0.0387573
6.108;-0.0378418
6.109;-0.0366211
6.11;-0.0350952
6.111;-0.0335693
6.112;-0.0317383
6.113;-0.0296021
6.114;-0.0274658
6.115;-0.0256348
6.116;-0.0244141
6.117;-0.0238037
6.118;-0.0234985
6.119;-0.0241089
6.12;-0.0250244
6.121;-0.0265503
6.122;-0.0286865
6.123;-0.0305176
6.124;-0.0323486
6.125;-0.0335693
6.126;-0.03479
6.127;-0.0357056
6.128;-0.0366211
6.129;-0.0378418
6.13;-0.0387573
6.131;-0.039978
6.132;-0.0405884
6.133;-0.0408936
6.134;-0.039978
6.135;-0.038147
6.136;-0.0357056
6.137;-0.032959
6.138;-0.0296021
6.139;-0.0265503
6.14;-0.0238037
6.141;-0.0216675
6.142;-0.0204468
6.143;-0.0195312
6.144;-0.0189209
6.145;-0.0180054
6.146;-0.017395
6.147;-0.0161743
6.148;-0.0149536
6.149;-0.0140381
6.15;-0.0137329
6.151;-0.0137329
6.152;-0.0143433
6.153;-0.015564
6.154;-0.017395
6.155;-0.0195312
6.156;-0.0216675
6.157;-0.0231934
6.158;-0.0238037
6.159;-0.0241089
6.16;-0.0238037
6.161;-0.0231934
6.162;-0.0222778
6.163;-0.0210571
6.164;-0.0195312
6.165;-0.017395
6.166;-0.015564
6.167;-0.0137329
6.168;-0.0119019
6.169;-0.0100708
6.17;-0.00854492
6.171;-0.00701904
6.172;-0.00610352
6.173;-0.00549316
6.174;-0.00518799
6.175;-0.00518799
6.176;-0.00518799
6.177;-0.00488281
6.178;-0.00396729
6.179;-0.00305176
6.18;-0.00152588
6.181;0.000305176
6.182;0.00183105
6.183;0.00305176
6.184;0.00427246
6.185;0.00549316
6.186;0.00701904
6.187;0.00823975
6.188;0.00915527
6.189;0.00976562
6.19;0.010376
6.191;0.0109863
6.192;0.0115967
6.193;0.012207
6.194;0.012207
6.195;0.0115967
6.196;0.0106812
6.197;0.00946045
6.198;0.00793457
6.199;0.00671387
6.2;0.00518799
6.201;0.00305176
6.202;0.000610352
6.203;-0.00244141
6.204;-0.00640869
6.205;-0.0109863
6.206;-0.0158691
6.207;-0.0204468
6.208;-0.0250244
6.209;-0.0289917
6.21;-0.0326538
6.211;-0.0354004
6.212;-0.0375366
6.213;-0.0387573
6.214;-0.039978
6.215;-0.0408936
6.216;-0.0415039
6.217;-0.0424194
6.218;-0.043335
6.219;-0.0439453
6.22;-0.0448608
6.221;-0.0460815
6.222;-0.0469971
6.223;-0.0476074
6.224;-0.0476074
6.225;-0.0476074
6.226;-0.0473022
6.227;-0.0476074
6.228;-0.0482178
6.229;-0.0491333
6.23;-0.0509644
6.231;-0.0531006
6.232;-0.0558472
6.233;-0.0585938
6.234;-0.0610352
6.235;-0.0634766
6.236;-0.0653076
6.237;-0.0668335
6.238;-0.0674438
6.239;-0.0674438
6.24;-0.0671387
6.241;-0.0665283
6.242;-0.065918
6.243;-0.0653076
6.244;-0.0650024
6.245;-0.0643921
6.246;-0.0637817
6.247;-0.0628662
6.248;-0.0616455
6.249;-0.0604248
6.25;-0.0588989
6.251;-0.057373
6.252;-0.0552368
6.253;-0.0527954
6.254;-0.050354
6.255;-0.0469971
6.256;-0.0430298
6.257;-0.0384521
6.258;-0.0335693
6.259;-0.0283813
6.26;-0.0228882
6.261;-0.0164795
6.262;-0.00762939
6.263;0.00366211
6.264;0.0180054
6.265;0.03479
6.266;0.0543213
6.267;0.0759888
6.268;0.100708
6.269;0.127869
6.27;0.158386
6.271;0.19165
6.272;0.228577
6.273;0.268555
6.274;0.311584
6.275;0.358276
6.276;0.408325
6.277;0.462036
6.278;0.519104
6.279;0.579834
6.28;0.643921
6.281;0.710449
6.282;0.779419
6.283;0.849609
6.284;0.921021
6.285;0.992126
6.286;1.06232
6.287;1.12946
6.288;1.19232
6.289;1.25031
6.29;1.30188
6.291;1.34705
6.292;1.38489
6.293;1.41479
6.294;1.43494
6.295;1.44409
6.296;1.44043
6.297;1.42242
6.298;1.38947
6.299;1.34125
6.3;1.27899
6.301;1.20239
6.302;1.11328
6.303;1.01196
6.304;0.900574
6.305;0.78064
6.306;0.654602
6.307;0.525208
6.308;0.393982
6.309;0.263672
6.31;0.136108
6.311;0.0131226
6.312;-0.103149
6.313;-0.210571
6.314;-0.308228
6.315;-0.394287
6.316;-0.468445
6.317;-0.53009
6.318;-0.579224
6.319;-0.61615
6.32;-0.641479
6.321;-0.655212
6.322;-0.657959
6.323;-0.65033
6.324;-0.632935
6.325;-0.607605
6.326;-0.575867
6.327;-0.539856
6.328;-0.501404
6.329;-0.462036
6.33;-0.423584
6.331;-0.386963
6.332;-0.352783
6.333;-0.321655
6.334;-0.293579
6.335;-0.268555
6.336;-0.246582
6.337;-0.227356
6.338;-0.210876
6.339;-0.196228
6.34;-0.183411
6.341;-0.172119
6.342;-0.162048
6.343;-0.153809
6.344;-0.146484
6.345;-0.140076
6.346;-0.134583
6.347;-0.129395
6.348;-0.124817
6.349;-0.12085
6.35;-0.117493
6.351;-0.114136
6.352;-0.110779
6.353;-0.107422
6.354;-0.10437
6.355;-0.101929
6.356;-0.100403
6.357;-0.0997925
6.358;-0.100403
6.359;-0.101624
6.36;-0.103149
6.361;-0.104675
6.362;-0.106201
6.363;-0.107422
6.364;-0.108337
6.365;-0.108643
6.366;-0.108643
6.367;-0.108337
6.368;-0.107727
6.369;-0.107117
6.37;-0.106506
6.371;-0.105896
6.372;-0.10498
6.373;-0.103455
6.374;-0.101624
6.375;-0.0985718
6.376;-0.0949097
6.377;-0.0906372
6.378;-0.0863647
6.379;-0.0820923
6.38;-0.0784302
6.381;-0.0750732
6.382;-0.0726318
6.383;-0.0704956
6.384;-0.0692749
6.385;-0.0683594
6.386;-0.067749
6.387;-0.0674438
6.388;-0.0674438
6.389;-0.0674438
6.39;-0.0674438
6.391;-0.067749
6.392;-0.067749
6.393;-0.067749
6.394;-0.067749
6.395;-0.067749
6.396;-0.067749
6.397;-0.067749
6.398;-0.0674438
6.399;-0.0671387
6.4;-0.0665283
6.401;-0.065918
6.402;-0.0653076
6.403;-0.0650024
6.404;-0.0650024
6.405;-0.0650024
6.406;-0.0653076
6.407;-0.0653076
6.408;-0.0653076
6.409;-0.0650024
6.41;-0.0646973
6.411;-0.0643921
6.412;-0.0637817
6.413;-0.0628662
6.414;-0.0619507
6.415;-0.0604248
6.416;-0.0588989
6.417;-0.057373
6.418;-0.0558472
6.419;-0.0543213
6.42;-0.0521851
6.421;-0.0497437
6.422;-0.0463867
6.423;-0.0427246
6.424;-0.0390625
6.425;-0.0354004
6.426;-0.0320435
6.427;-0.0292969
6.428;-0.0265503
6.429;-0.0234985
6.43;-0.0204468
6.431;-0.017395
6.432;-0.0146484
6.433;-0.012207
6.434;-0.0106812
6.435;-0.00976562
6.436;-0.00915527
6.437;-0.00915527
6.438;-0.0088501
6.439;-0.00854492
6.44;-0.00732422
6.441;-0.00518799
6.442;-0.00274658
6.443;0
6.444;0.00274658
6.445;0.00518799
6.446;0.00701904
6.447;0.00854492
6.448;0.00976562
6.449;0.0112915
6.45;0.0137329
6.451;0.0164795
6.452;0.0198364
6.453;0.0241089
6.454;0.0283813
6.455;0.0323486
6.456;0.0363159
6.457;0.0396729
6.458;0.0427246
6.459;0.0457764
6.46;0.0485229
6.461;0.0506592
6.462;0.0527954
6.463;0.0543213
6.464;0.0561523
6.465;0.0579834
6.466;0.0601196
6.467;0.062561
6.468;0.0653076
6.469;0.0674438
6.47;0.0695801
6.471;0.0714111
6.472;0.072937
6.473;0.0741577
6.474;0.0750732
6.475;0.0759888
6.476;0.0769043
6.477;0.0772095
6.478;0.0778198
6.479;0.078125
6.48;0.0784302
6.481;0.0790405
6.482;0.0796509
6.483;0.0799561
6.484;0.0802612
6.485;0.0802612
6.486;0.0802612
6.487;0.0799561
6.488;0.0796509
6.489;0.0790405
6.49;0.078125
6.491;0.0772095
6.492;0.0759888
6.493;0.0750732
6.494;0.0750732
6.495;0.0753784
6.496;0.0759888
6.497;0.0769043
6.498;0.0778198
6.499;0.0793457
6.5;0.0814819
6.501;0.0839233
6.502;0.0869751
6.503;0.0900269
6.504;0.0924683
6.505;0.0942993
6.506;0.0952148
6.507;0.0949097
6.508;0.0946045
6.509;0.0939941
6.51;0.093689
6.511;0.093689
6.512;0.093689
6.513;0.0933838
6.514;0.0918579
6.515;0.0894165
6.516;0.0854492
6.517;0.0802612
6.518;0.0741577
6.519;0.067749
6.52;0.0619507
6.521;0.0570679
6.522;0.0534058
6.523;0.0506592
6.524;0.0485229
6.525;0.0463867
6.526;0.0445557
6.527;0.043335
6.528;0.0427246
6.529;0.0427246
6.53;0.0439453
6.531;0.0454712
6.532;0.0469971
6.533;0.0485229
6.534;0.0497437
6.535;0.0509644
6.536;0.0521851
6.537;0.0537109
6.538;0.0552368
6.539;0.0564575
6.54;0.057373
6.541;0.057373
6.542;0.0567627
6.543;0.0546265
6.544;0.0518799
6.545;0.0482178
6.546;0.0445557
6.547;0.0405884
6.548;0.0366211
6.549;0.0332642
6.55;0.0305176
6.551;0.0286865
6.552;0.027771
6.553;0.0271606
6.554;0.0265503
6.555;0.0259399
6.556;0.0250244
6.557;0.0244141
6.558;0.0244141
6.559;0.0250244
6.56;0.0268555
6.561;0.0292969
6.562;0.0317383
6.563;0.0341797
6.564;0.0360107
6.565;0.0378418
6.566;0.0390625
6.567;0.039978
6.568;0.0405884
6.569;0.0408936
6.57;0.0405884
6.571;0.0405884
6.572;0.0405884
6.573;0.039978
6.574;0.0384521
6.575;0.0366211
6.576;0.0338745
6.577;0.0308228
6.578;0.027771
6.579;0.0247192
6.58;0.0219727
6.581;0.0192261
6.582;0.0161743
6.583;0.0134277
6.584;0.0106812
6.585;0.00793457
6.586;0.00579834
6.587;0.00457764
6.588;0.00396729
6.589;0.00335693
6.59;0.00305176
6.591;0.00244141
6.592;0.00213623
6.593;0.00244141
6.594;0.00335693
6.595;0.00457764
6.596;0.00671387
6.597;0.00915527
6.598;0.0119019
6.599;0.0146484
6.6;0.0170898
6.601;0.0195312
6.602;0.0216675
6.603;0.0231934
6.604;0.0244141
6.605;0.0250244
6.606;0.0250244
6.607;0.0250244
6.608;0.0247192
6.609;0.0247192
6.61;0.0247192
6.611;0.0247192
6.612;0.0250244
6.613;0.0247192
6.614;0.0241089
6.615;0.0228882
6.616;0.0213623
6.617;0.0198364
6.618;0.0180054
6.619;0.0158691
6.62;0.0137329
6.621;0.0112915
6.622;0.0088501
6.623;0.00671387
6.624;0.00457764
6.625;0.00305176
6.626;0.00183105
6.627;0.0012207
6.628;0.000610352
6.629;0
6.63;-0.000305176
6.631;-0.000610352
6.632;-0.000610352
6.633;-0.000915527
6.634;-0.000915527
6.635;-0.000915527
6.636;-0.000610352
6.637;0
6.638;0.000610352
6.639;0.00152588
6.64;0.00335693
6.641;0.00549316
6.642;0.00762939
6.643;0.00915527
6.644;0.0100708
6.645;0.0106812
6.646;0.0112915
6.647;0.0112915
6.648;0.0115967
6.649;0.0115967
6.65;0.0115967
6.651;0.0106812
6.652;0.00976562
6.653;0.00854492
6.654;0.00762939
6.655;0.00732422
6.656;0.00732422
6.657;0.00701904
6.658;0.00640869
6.659;0.00518799
6.66;0.00335693
6.661;0.0012207
6.662;-0.0012207
6.663;-0.00366211
6.664;-0.00488281
6.665;-0.00488281
6.666;-0.00366211
6.667;-0.00152588
6.668;0.00152588
6.669;0.00427246
6.67;0.00671387
6.671;0.00915527
6.672;0.0112915
6.673;0.0131226
6.674;0.0146484
6.675;0.0161743
6.676;0.017395
6.677;0.0186157
6.678;0.0204468
6.679;0.022583
6.68;0.0247192
6.681;0.0268555
6.682;0.0280762
6.683;0.0286865
6.684;0.0286865
6.685;0.0280762
6.686;0.0271606
6.687;0.0259399
6.688;0.0247192
6.689;0.0234985
6.69;0.0219727
6.691;0.0201416
6.692;0.0183105
6.693;0.0164795
6.694;0.0149536
6.695;0.0140381
6.696;0.0140381
6.697;0.0143433
6.698;0.0149536
6.699;0.0158691
6.7;0.0167847
6.701;0.0180054
6.702;0.0189209
6.703;0.0201416
6.704;0.020752
6.705;0.0210571
6.706;0.0204468
6.707;0.0195312
6.708;0.0183105
6.709;0.0167847
6.71;0.0149536
6.711;0.0134277
6.712;0.0115967
6.713;0.00946045
6.714;0.00701904
6.715;0.00427246
6.716;0.00152588
6.717;-0.0012207
6.718;-0.00335693
6.719;-0.00488281
6.72;-0.00518799
6.721;-0.00518799
6.722;-0.00488281
6.723;-0.00457764
6.724;-0.00457764
6.725;-0.00518799
6.726;-0.00549316
6.727;-0.00549316
6.728;-0.00488281
6.729;-0.00427246
6.73;-0.00335693
6.731;-0.00305176
6.732;-0.00305176
6.733;-0.00366211
6.734;-0.00427246
6.735;-0.00518799
6.736;-0.00610352
6.737;-0.00701904
6.738;-0.00854492
6.739;-0.010376
6.74;-0.0125122
6.741;-0.0149536
6.742;-0.017395
6.743;-0.0198364
6.744;-0.0216675
6.745;-0.0228882
6.746;-0.0228882
6.747;-0.0222778
6.748;-0.020752
6.749;-0.0192261
6.75;-0.017395
6.751;-0.0158691
6.752;-0.0143433
6.753;-0.0128174
6.754;-0.0109863
6.755;-0.00915527
6.756;-0.00762939
6.757;-0.00640869
6.758;-0.00549316
6.759;-0.00427246
6.76;-0.00335693
6.761;-0.00244141
6.762;-0.00213623
6.763;-0.00213623
6.764;-0.00244141
6.765;-0.00305176
6.766;-0.00396729
6.767;-0.00488281
6.768;-0.00610352
6.769;-0.00671387
6.77;-0.00732422
6.771;-0.00793457
6.772;-0.00823975
6.773;-0.0088501
6.774;-0.00946045
6.775;-0.0106812
6.776;-0.012207
6.777;-0.0137329
6.778;-0.0152588
6.779;-0.0167847
6.78;-0.0180054
6.781;-0.0189209
6.782;-0.0195312
6.783;-0.0204468
6.784;-0.0216675
6.785;-0.0228882
6.786;-0.0244141
6.787;-0.0262451
6.788;-0.0280762
6.789;-0.0302124
6.79;-0.0323486
6.791;-0.03479
6.792;-0.0375366
6.793;-0.039978
6.794;-0.0418091
6.795;-0.0424194
6.796;-0.0421143
6.797;-0.0402832
6.798;-0.0375366
6.799;-0.0341797
6.8;-0.0305176
6.801;-0.0271606
6.802;-0.0244141
6.803;-0.0222778
6.804;-0.0201416
6.805;-0.0183105
6.806;-0.0161743
6.807;-0.0137329
6.808;-0.0109863
6.809;-0.00762939
6.81;-0.00427246
6.811;-0.000610352
6.812;0.00274658
6.813;0.00549316
6.814;0.00732422
6.815;0.00854492
6.816;0.0088501
6.817;0.0088501
6.818;0.0088501
6.819;0.00915527
6.82;0.00915527
6.821;0.0088501
6.822;0.00823975
6.823;0.00671387
6.824;0.00518799
6.825;0.00335693
6.826;0.00213623
6.827;0.00152588
6.828;0.0012207
6.829;0.0012207
6.83;0.0012207
6.831;0.0012207
6.832;0.000915527
6.833;0.000305176
6.834;-0.000610352
6.835;-0.000915527
6.836;-0.0012207
6.837;-0.0012207
6.838;-0.000305176
6.839;0.000915527
6.84;0.00305176
6.841;0.00549316
6.842;0.00854492
6.843;0.0115967
6.844;0.0143433
6.845;0.0164795
6.846;0.0183105
6.847;0.0198364
6.848;0.0216675
6.849;0.0231934
6.85;0.0250244
6.851;0.0268555
6.852;0.0289917
6.853;0.0314331
6.854;0.0332642
6.855;0.0350952
6.856;0.0366211
6.857;0.0375366
6.858;0.0378418
6.859;0.0378418
6.86;0.0375366
6.861;0.0366211
6.862;0.0357056
6.863;0.03479
6.864;0.0332642
6.865;0.0320435
6.866;0.0302124
6.867;0.0286865
6.868;0.0265503
6.869;0.0241089
6.87;0.0216675
6.871;0.0198364
6.872;0.0186157
6.873;0.0183105
6.874;0.0189209
6.875;0.0201416
6.876;0.0210571
6.877;0.0216675
6.878;0.0219727
6.879;0.0219727
6.88;0.0222778
6.881;0.0231934
6.882;0.0244141
6.883;0.0265503
6.884;0.0286865
6.885;0.0311279
6.886;0.0335693
