0;0.0363159
0.001;0.0320435
0.002;0.027771
0.003;0.0238037
0.004;0.0201416
0.005;0.0177002
0.006;0.015564
0.007;0.0143433
0.008;0.0131226
0.009;0.0119019
0.01;0.0106812
0.011;0.00915527
0.012;0.00732422
0.013;0.00549316
0.014;0.00366211
0.015;0.00183105
0.016;0.000305176
0.017;-0.0012207
0.018;-0.00213623
0.019;-0.00274658
0.02;-0.00335693
0.021;-0.00335693
0.022;-0.00335693
0.023;-0.00335693
0.024;-0.00366211
0.025;-0.00396729
0.026;-0.00427246
0.027;-0.00488281
0.028;-0.00549316
0.029;-0.00610352
0.03;-0.00671387
0.031;-0.00701904
0.032;-0.00701904
0.033;-0.00701904
0.034;-0.00701904
0.035;-0.00701904
0.036;-0.00701904
0.037;-0.00762939
0.038;-0.00793457
0.039;-0.00823975
0.04;-0.00854492
0.041;-0.00823975
0.042;-0.00762939
0.043;-0.00732422
0.044;-0.00671387
0.045;-0.00640869
0.046;-0.00579834
0.047;-0.00549316
0.048;-0.00518799
0.049;-0.00457764
0.05;-0.00427246
0.051;-0.00427246
0.052;-0.00427246
0.053;-0.00427246
0.054;-0.00427246
0.055;-0.00396729
0.056;-0.00335693
0.057;-0.00244141
0.058;-0.00152588
0.059;-0.000610352
0.06;0.000305176
0.061;0.000915527
0.062;0.00152588
0.063;0.00183105
0.064;0.00183105
0.065;0.00152588
0.066;0.000915527
0.067;0.000305176
0.068;0
0.069;-0.000305176
0.07;0
0.071;0
0.072;0.000305176
0.073;0.000610352
0.074;0.000915527
0.075;0.0012207
0.076;0.00183105
0.077;0.00244141
0.078;0.00335693
0.079;0.00427246
0.08;0.00518799
0.081;0.00579834
0.082;0.00610352
0.083;0.00640869
0.084;0.00701904
0.085;0.00793457
0.086;0.00915527
0.087;0.0106812
0.088;0.0125122
0.089;0.0140381
0.09;0.015564
0.091;0.017395
0.092;0.0192261
0.093;0.0210571
0.094;0.0228882
0.095;0.0247192
0.096;0.0265503
0.097;0.0283813
0.098;0.0302124
0.099;0.0320435
0.1;0.0335693
0.101;0.0350952
0.102;0.0363159
0.103;0.0369263
0.104;0.0375366
0.105;0.0378418
0.106;0.038147
0.107;0.038147
0.108;0.0378418
0.109;0.0372314
0.11;0.0366211
0.111;0.0354004
0.112;0.0338745
0.113;0.0323486
0.114;0.0305176
0.115;0.0283813
0.116;0.0265503
0.117;0.0250244
0.118;0.0234985
0.119;0.0222778
0.12;0.0213623
0.121;0.020752
0.122;0.0204468
0.123;0.0201416
0.124;0.0198364
0.125;0.0198364
0.126;0.0198364
0.127;0.0204468
0.128;0.0210571
0.129;0.0219727
0.13;0.0228882
0.131;0.0238037
0.132;0.0247192
0.133;0.0259399
0.134;0.0268555
0.135;0.0274658
0.136;0.0280762
0.137;0.0283813
0.138;0.0286865
0.139;0.0286865
0.14;0.0286865
0.141;0.0289917
0.142;0.0286865
0.143;0.0286865
0.144;0.0280762
0.145;0.0274658
0.146;0.0268555
0.147;0.0262451
0.148;0.0256348
0.149;0.0250244
0.15;0.0247192
0.151;0.0244141
0.152;0.0247192
0.153;0.0247192
0.154;0.0253296
0.155;0.0256348
0.156;0.0259399
0.157;0.0259399
0.158;0.0259399
0.159;0.0259399
0.16;0.0256348
0.161;0.0250244
0.162;0.0247192
0.163;0.0244141
0.164;0.0241089
0.165;0.0234985
0.166;0.022583
0.167;0.0213623
0.168;0.0195312
0.169;0.017395
0.17;0.0152588
0.171;0.0131226
0.172;0.0115967
0.173;0.0106812
0.174;0.0100708
0.175;0.0100708
0.176;0.0100708
0.177;0.010376
0.178;0.010376
0.179;0.0106812
0.18;0.0109863
0.181;0.0109863
0.182;0.0112915
0.183;0.0112915
0.184;0.0115967
0.185;0.0119019
0.186;0.0125122
0.187;0.0131226
0.188;0.0140381
0.189;0.0152588
0.19;0.0158691
0.191;0.0164795
0.192;0.0170898
0.193;0.0170898
0.194;0.0170898
0.195;0.0167847
0.196;0.0161743
0.197;0.015564
0.198;0.0149536
0.199;0.0143433
0.2;0.0137329
0.201;0.0131226
0.202;0.0128174
0.203;0.012207
0.204;0.012207
0.205;0.012207
0.206;0.0125122
0.207;0.0131226
0.208;0.0137329
0.209;0.0146484
0.21;0.015564
0.211;0.0164795
0.212;0.0170898
0.213;0.0177002
0.214;0.0177002
0.215;0.0177002
0.216;0.0177002
0.217;0.017395
0.218;0.0170898
0.219;0.0164795
0.22;0.0158691
0.221;0.0149536
0.222;0.0137329
0.223;0.0125122
0.224;0.0119019
0.225;0.0112915
0.226;0.0106812
0.227;0.010376
0.228;0.010376
0.229;0.010376
0.23;0.010376
0.231;0.0100708
0.232;0.0100708
0.233;0.0100708
0.234;0.00976562
0.235;0.00946045
0.236;0.00915527
0.237;0.0088501
0.238;0.0088501
0.239;0.00915527
0.24;0.00915527
0.241;0.00946045
0.242;0.00976562
0.243;0.0100708
0.244;0.0100708
0.245;0.0100708
0.246;0.00976562
0.247;0.00915527
0.248;0.00793457
0.249;0.00671387
0.25;0.00549316
0.251;0.00427246
0.252;0.00335693
0.253;0.00274658
0.254;0.00244141
0.255;0.00244141
0.256;0.00244141
0.257;0.00274658
0.258;0.00305176
0.259;0.00366211
0.26;0.00488281
0.261;0.00640869
0.262;0.00823975
0.263;0.0106812
0.264;0.0134277
0.265;0.0161743
0.266;0.0186157
0.267;0.0213623
0.268;0.0241089
0.269;0.0268555
0.27;0.0299072
0.271;0.032959
0.272;0.0360107
0.273;0.0393677
0.274;0.0427246
0.275;0.0463867
0.276;0.0500488
0.277;0.0537109
0.278;0.057373
0.279;0.0610352
0.28;0.0646973
0.281;0.0680542
0.282;0.0717163
0.283;0.0750732
0.284;0.078125
0.285;0.0808716
0.286;0.0836182
0.287;0.0860596
0.288;0.088501
0.289;0.0909424
0.29;0.0933838
0.291;0.0961304
0.292;0.0985718
0.293;0.101013
0.294;0.103455
0.295;0.105286
0.296;0.107117
0.297;0.108337
0.298;0.109558
0.299;0.110474
0.3;0.110779
0.301;0.110779
0.302;0.110474
0.303;0.109863
0.304;0.108948
0.305;0.108032
0.306;0.106506
0.307;0.10437
0.308;0.101929
0.309;0.0991821
0.31;0.0964355
0.311;0.093689
0.312;0.0906372
0.313;0.0875854
0.314;0.0845337
0.315;0.0808716
0.316;0.0772095
0.317;0.0735474
0.318;0.0698853
0.319;0.0662231
0.32;0.062561
0.321;0.0588989
0.322;0.0552368
0.323;0.0515747
0.324;0.0479126
0.325;0.0445557
0.326;0.0408936
0.327;0.0372314
0.328;0.0338745
0.329;0.0302124
0.33;0.0268555
0.331;0.0231934
0.332;0.0192261
0.333;0.0149536
0.334;0.010376
0.335;0.00579834
0.336;0.000915527
0.337;-0.00366211
0.338;-0.00732422
0.339;-0.010376
0.34;-0.0128174
0.341;-0.0149536
0.342;-0.0167847
0.343;-0.0183105
0.344;-0.0198364
0.345;-0.0210571
0.346;-0.0216675
0.347;-0.0219727
0.348;-0.0219727
0.349;-0.0213623
0.35;-0.020752
0.351;-0.0198364
0.352;-0.0189209
0.353;-0.0183105
0.354;-0.017395
0.355;-0.0167847
0.356;-0.0161743
0.357;-0.0152588
0.358;-0.0143433
0.359;-0.0134277
0.36;-0.0125122
0.361;-0.0119019
0.362;-0.0112915
0.363;-0.0109863
0.364;-0.0109863
0.365;-0.0106812
0.366;-0.010376
0.367;-0.0100708
0.368;-0.00946045
0.369;-0.0088501
0.37;-0.00823975
0.371;-0.00762939
0.372;-0.00701904
0.373;-0.00640869
0.374;-0.00640869
0.375;-0.00610352
0.376;-0.00640869
0.377;-0.00640869
0.378;-0.00640869
0.379;-0.00640869
0.38;-0.00640869
0.381;-0.00671387
0.382;-0.00701904
0.383;-0.00732422
0.384;-0.00823975
0.385;-0.00946045
0.386;-0.0106812
0.387;-0.0119019
0.388;-0.0128174
0.389;-0.0131226
0.39;-0.0128174
0.391;-0.0115967
0.392;-0.0100708
0.393;-0.00762939
0.394;-0.00457764
0.395;-0.000610352
0.396;0.00427246
0.397;0.010376
0.398;0.0177002
0.399;0.0265503
0.4;0.0369263
0.401;0.0488281
0.402;0.0616455
0.403;0.0756836
0.404;0.0906372
0.405;0.106201
0.406;0.122681
0.407;0.140381
0.408;0.159302
0.409;0.178833
0.41;0.19928
0.411;0.219727
0.412;0.239563
0.413;0.258484
0.414;0.275574
0.415;0.289917
0.416;0.301208
0.417;0.308533
0.418;0.311584
0.419;0.310364
0.42;0.304565
0.421;0.2948
0.422;0.281067
0.423;0.263367
0.424;0.241699
0.425;0.216675
0.426;0.188599
0.427;0.157166
0.428;0.123596
0.429;0.0881958
0.43;0.0518799
0.431;0.0149536
0.432;-0.0213623
0.433;-0.0564575
0.434;-0.0894165
0.435;-0.119934
0.436;-0.147095
0.437;-0.170288
0.438;-0.19043
0.439;-0.206604
0.44;-0.219421
0.441;-0.229187
0.442;-0.235596
0.443;-0.239258
0.444;-0.240173
0.445;-0.238953
0.446;-0.235596
0.447;-0.230408
0.448;-0.223999
0.449;-0.216675
0.45;-0.20874
0.451;-0.2005
0.452;-0.192566
0.453;-0.184631
0.454;-0.177307
0.455;-0.170593
0.456;-0.163879
0.457;-0.157471
0.458;-0.151062
0.459;-0.144653
0.46;-0.137329
0.461;-0.130005
0.462;-0.12207
0.463;-0.113525
0.464;-0.10498
0.465;-0.0958252
0.466;-0.0869751
0.467;-0.078125
0.468;-0.0689697
0.469;-0.0604248
0.47;-0.0518799
0.471;-0.0436401
0.472;-0.0360107
0.473;-0.0286865
0.474;-0.022583
0.475;-0.0170898
0.476;-0.012207
0.477;-0.00823975
0.478;-0.00518799
0.479;-0.00274658
0.48;-0.0012207
0.481;0
0.482;0.000305176
0.483;0.000305176
0.484;0
0.485;0
0.486;0.000305176
0.487;0.000305176
0.488;0.000610352
0.489;0.000610352
0.49;0.0012207
0.491;0.00183105
0.492;0.00244141
0.493;0.00305176
0.494;0.00366211
0.495;0.00427246
0.496;0.00488281
0.497;0.00549316
0.498;0.00610352
0.499;0.00671387
0.5;0.00732422
0.501;0.00793457
0.502;0.00854492
0.503;0.0088501
0.504;0.00915527
0.505;0.00946045
0.506;0.0100708
0.507;0.010376
0.508;0.0106812
0.509;0.0109863
0.51;0.0109863
0.511;0.0109863
0.512;0.010376
0.513;0.00946045
0.514;0.00854492
0.515;0.00793457
0.516;0.00762939
0.517;0.00762939
0.518;0.00793457
0.519;0.00823975
0.52;0.00823975
0.521;0.00823975
0.522;0.00823975
0.523;0.00823975
0.524;0.00823975
0.525;0.0088501
0.526;0.00946045
0.527;0.0100708
0.528;0.0109863
0.529;0.0115967
0.53;0.0119019
0.531;0.0125122
0.532;0.0131226
0.533;0.0140381
0.534;0.0149536
0.535;0.0161743
0.536;0.017395
0.537;0.0186157
0.538;0.0192261
0.539;0.0195312
0.54;0.0198364
0.541;0.0198364
0.542;0.0198364
0.543;0.0195312
0.544;0.0195312
0.545;0.0192261
0.546;0.0186157
0.547;0.0183105
0.548;0.0177002
0.549;0.0167847
0.55;0.0161743
0.551;0.0152588
0.552;0.0146484
0.553;0.0140381
0.554;0.0134277
0.555;0.0134277
0.556;0.0131226
0.557;0.0131226
0.558;0.0134277
0.559;0.0134277
0.56;0.0134277
0.561;0.0134277
0.562;0.0137329
0.563;0.0140381
0.564;0.0146484
0.565;0.0152588
0.566;0.0158691
0.567;0.0164795
0.568;0.0170898
0.569;0.0177002
0.57;0.0180054
0.571;0.0183105
0.572;0.0180054
0.573;0.0170898
0.574;0.0161743
0.575;0.0152588
0.576;0.0146484
0.577;0.0146484
0.578;0.0149536
0.579;0.0152588
0.58;0.0149536
0.581;0.0146484
0.582;0.0143433
0.583;0.0140381
0.584;0.0137329
0.585;0.0137329
0.586;0.0137329
0.587;0.0143433
0.588;0.0149536
0.589;0.0158691
0.59;0.017395
0.591;0.0186157
0.592;0.0201416
0.593;0.0213623
0.594;0.022583
0.595;0.0238037
0.596;0.0250244
0.597;0.0259399
0.598;0.0268555
0.599;0.0280762
0.6;0.0292969
0.601;0.0308228
0.602;0.0323486
0.603;0.0338745
0.604;0.0354004
0.605;0.0369263
0.606;0.0384521
0.607;0.039978
0.608;0.0415039
0.609;0.0430298
0.61;0.0445557
0.611;0.0460815
0.612;0.0476074
0.613;0.0491333
0.614;0.050354
0.615;0.0512695
0.616;0.0524902
0.617;0.0537109
0.618;0.0549316
0.619;0.0564575
0.62;0.0582886
0.621;0.0598145
0.622;0.0616455
0.623;0.0631714
0.624;0.0646973
0.625;0.0662231
0.626;0.0674438
0.627;0.0686646
0.628;0.0701904
0.629;0.0717163
0.63;0.0738525
0.631;0.0762939
0.632;0.0787354
0.633;0.0811768
0.634;0.083313
0.635;0.0857544
0.636;0.0881958
0.637;0.0906372
0.638;0.0933838
0.639;0.0958252
0.64;0.0985718
0.641;0.100708
0.642;0.102844
0.643;0.10437
0.644;0.105896
0.645;0.107422
0.646;0.108337
0.647;0.109558
0.648;0.110779
0.649;0.111694
0.65;0.11261
0.651;0.113831
0.652;0.114441
0.653;0.115051
0.654;0.115356
0.655;0.115662
0.656;0.115356
0.657;0.115051
0.658;0.114746
0.659;0.114441
0.66;0.114136
0.661;0.113831
0.662;0.113525
0.663;0.112915
0.664;0.112305
0.665;0.111694
0.666;0.110474
0.667;0.109558
0.668;0.108337
0.669;0.106812
0.67;0.105286
0.671;0.10376
0.672;0.102234
0.673;0.100403
0.674;0.098877
0.675;0.0973511
0.676;0.0958252
0.677;0.0946045
0.678;0.0933838
0.679;0.0918579
0.68;0.0906372
0.681;0.0891113
0.682;0.0872803
0.683;0.0857544
0.684;0.0842285
0.685;0.0827026
0.686;0.0814819
0.687;0.0805664
0.688;0.0793457
0.689;0.0784302
0.69;0.0775146
0.691;0.0762939
0.692;0.0750732
0.693;0.0735474
0.694;0.0717163
0.695;0.0701904
0.696;0.0683594
0.697;0.0668335
0.698;0.0653076
0.699;0.0634766
0.7;0.0616455
0.701;0.0598145
0.702;0.0579834
0.703;0.0561523
0.704;0.0540161
0.705;0.0521851
0.706;0.0500488
0.707;0.0482178
0.708;0.0460815
0.709;0.0439453
0.71;0.0415039
0.711;0.0390625
0.712;0.0363159
0.713;0.0335693
0.714;0.0305176
0.715;0.0274658
0.716;0.0247192
0.717;0.0219727
0.718;0.0195312
0.719;0.0170898
0.72;0.0149536
0.721;0.0131226
0.722;0.0109863
0.723;0.0088501
0.724;0.00671387
0.725;0.00457764
0.726;0.00305176
0.727;0.00152588
0.728;0.000610352
0.729;-0.000305176
0.73;-0.0012207
0.731;-0.00152588
0.732;-0.00183105
0.733;-0.0012207
0.734;-0.000305176
0.735;0.000915527
0.736;0.00244141
0.737;0.00366211
0.738;0.00457764
0.739;0.00518799
0.74;0.00549316
0.741;0.00549316
0.742;0.00518799
0.743;0.00488281
0.744;0.00488281
0.745;0.00488281
0.746;0.00518799
0.747;0.00549316
0.748;0.00579834
0.749;0.00610352
0.75;0.00579834
0.751;0.00518799
0.752;0.00427246
0.753;0.00366211
0.754;0.00274658
0.755;0.00213623
0.756;0.00183105
0.757;0.00183105
0.758;0.00152588
0.759;0.0012207
0.76;0.0012207
0.761;0.000915527
0.762;0.000915527
0.763;0.0012207
0.764;0.00152588
0.765;0.00213623
0.766;0.00274658
0.767;0.00335693
0.768;0.00396729
0.769;0.00457764
0.77;0.00488281
0.771;0.00518799
0.772;0.00549316
0.773;0.00579834
0.774;0.00610352
0.775;0.00671387
0.776;0.00701904
0.777;0.00701904
0.778;0.00701904
0.779;0.00732422
0.78;0.00762939
0.781;0.00823975
0.782;0.00946045
0.783;0.0109863
0.784;0.0128174
0.785;0.0143433
0.786;0.015564
0.787;0.0167847
0.788;0.017395
0.789;0.0180054
0.79;0.0183105
0.791;0.0189209
0.792;0.0189209
0.793;0.0192261
0.794;0.0189209
0.795;0.0186157
0.796;0.0186157
0.797;0.0183105
0.798;0.0186157
0.799;0.0192261
0.8;0.0198364
0.801;0.0201416
0.802;0.0204468
0.803;0.0201416
0.804;0.0201416
0.805;0.0198364
0.806;0.0195312
0.807;0.0195312
0.808;0.0195312
0.809;0.0195312
0.81;0.0192261
0.811;0.0192261
0.812;0.0189209
0.813;0.0186157
0.814;0.0183105
0.815;0.017395
0.816;0.0167847
0.817;0.0164795
0.818;0.0161743
0.819;0.0158691
0.82;0.0158691
0.821;0.015564
0.822;0.0149536
0.823;0.0140381
0.824;0.0131226
0.825;0.0119019
0.826;0.0109863
0.827;0.010376
0.828;0.010376
0.829;0.010376
0.83;0.0109863
0.831;0.0115967
0.832;0.0128174
0.833;0.0143433
0.834;0.0158691
0.835;0.0170898
0.836;0.0183105
0.837;0.0192261
0.838;0.0201416
0.839;0.0210571
0.84;0.0216675
0.841;0.022583
0.842;0.0228882
0.843;0.0231934
0.844;0.0231934
0.845;0.0228882
0.846;0.0222778
0.847;0.0210571
0.848;0.0192261
0.849;0.0177002
0.85;0.0158691
0.851;0.0140381
0.852;0.0128174
0.853;0.012207
0.854;0.0112915
0.855;0.0106812
0.856;0.00946045
0.857;0.00823975
0.858;0.00671387
0.859;0.00518799
0.86;0.00396729
0.861;0.00274658
0.862;0.00244141
0.863;0.00244141
0.864;0.00244141
0.865;0.00274658
0.866;0.00305176
0.867;0.00305176
0.868;0.00305176
0.869;0.00274658
0.87;0.00213623
0.871;0.00152588
0.872;0.000915527
0.873;0
0.874;-0.000610352
0.875;-0.0012207
0.876;-0.00183105
0.877;-0.00244141
0.878;-0.00305176
0.879;-0.00396729
0.88;-0.00457764
0.881;-0.00518799
0.882;-0.00610352
0.883;-0.00701904
0.884;-0.00762939
0.885;-0.00823975
0.886;-0.00823975
0.887;-0.00793457
0.888;-0.00762939
0.889;-0.00701904
0.89;-0.00640869
0.891;-0.00610352
0.892;-0.00610352
0.893;-0.00610352
0.894;-0.00640869
0.895;-0.00671387
0.896;-0.00701904
0.897;-0.00732422
0.898;-0.00793457
0.899;-0.00854492
0.9;-0.00915527
0.901;-0.00946045
0.902;-0.00976562
0.903;-0.0100708
0.904;-0.0100708
0.905;-0.0100708
0.906;-0.0100708
0.907;-0.00976562
0.908;-0.00946045
0.909;-0.00915527
0.91;-0.00915527
0.911;-0.0088501
0.912;-0.00915527
0.913;-0.00915527
0.914;-0.00915527
0.915;-0.00915527
0.916;-0.00854492
0.917;-0.00762939
0.918;-0.00671387
0.919;-0.00549316
0.92;-0.00457764
0.921;-0.00396729
0.922;-0.00366211
0.923;-0.00335693
0.924;-0.00335693
0.925;-0.00305176
0.926;-0.00335693
0.927;-0.00335693
0.928;-0.00335693
0.929;-0.00335693
0.93;-0.00305176
0.931;-0.00244141
0.932;-0.00213623
0.933;-0.00152588
0.934;-0.000610352
0.935;0.000305176
0.936;0.00152588
0.937;0.00305176
0.938;0.00488281
0.939;0.00671387
0.94;0.00854492
0.941;0.0109863
0.942;0.0137329
0.943;0.0164795
0.944;0.0198364
0.945;0.0234985
0.946;0.0271606
0.947;0.0308228
0.948;0.0344849
0.949;0.038147
0.95;0.0424194
0.951;0.0466919
0.952;0.0512695
0.953;0.0558472
0.954;0.06073
0.955;0.0650024
0.956;0.0692749
0.957;0.0732422
0.958;0.0769043
0.959;0.0805664
0.96;0.0839233
0.961;0.0869751
0.962;0.0897217
0.963;0.0921631
0.964;0.0942993
0.965;0.0961304
0.966;0.0979614
0.967;0.098877
0.968;0.0997925
0.969;0.0997925
0.97;0.0994873
0.971;0.0985718
0.972;0.0970459
0.973;0.0949097
0.974;0.0924683
0.975;0.0897217
0.976;0.0866699
0.977;0.083313
0.978;0.0796509
0.979;0.0759888
0.98;0.0720215
0.981;0.067749
0.982;0.0631714
0.983;0.0585938
0.984;0.0543213
0.985;0.0500488
0.986;0.0460815
0.987;0.0424194
0.988;0.0393677
0.989;0.0369263
0.99;0.0344849
0.991;0.0323486
0.992;0.0296021
0.993;0.0271606
0.994;0.0244141
0.995;0.0219727
0.996;0.0201416
0.997;0.0183105
0.998;0.0167847
0.999;0.0152588
1;0.0134277
1.001;0.0115967
1.002;0.00915527
1.003;0.00640869
1.004;0.00366211
1.005;0.000610352
1.006;-0.00244141
1.007;-0.00579834
1.008;-0.00946045
1.009;-0.0140381
1.01;-0.0186157
1.011;-0.0234985
1.012;-0.027771
1.013;-0.0317383
1.014;-0.0350952
1.015;-0.0378418
1.016;-0.0402832
1.017;-0.0424194
1.018;-0.0445557
1.019;-0.0463867
1.02;-0.0482178
1.021;-0.0497437
1.022;-0.0506592
1.023;-0.0512695
1.024;-0.0515747
1.025;-0.0509644
1.026;-0.050354
1.027;-0.0491333
1.028;-0.0479126
1.029;-0.0463867
1.03;-0.0448608
1.031;-0.043335
1.032;-0.0418091
1.033;-0.0408936
1.034;-0.039978
1.035;-0.0390625
1.036;-0.0387573
1.037;-0.0384521
1.038;-0.038147
1.039;-0.0384521
1.04;-0.0387573
1.041;-0.0390625
1.042;-0.0396729
1.043;-0.0402832
1.044;-0.0408936
1.045;-0.0418091
1.046;-0.0424194
1.047;-0.0430298
1.048;-0.0436401
1.049;-0.0439453
1.05;-0.0445557
1.051;-0.0448608
1.052;-0.0454712
1.053;-0.0460815
1.054;-0.0466919
1.055;-0.0476074
1.056;-0.0482178
1.057;-0.0491333
1.058;-0.0497437
1.059;-0.0500488
1.06;-0.050354
1.061;-0.0497437
1.062;-0.0488281
1.063;-0.0469971
1.064;-0.0448608
1.065;-0.0421143
1.066;-0.0387573
1.067;-0.0344849
1.068;-0.0286865
1.069;-0.0216675
1.07;-0.0128174
1.071;-0.00213623
1.072;0.00976562
1.073;0.0231934
1.074;0.038147
1.075;0.0543213
1.076;0.0720215
1.077;0.0909424
1.078;0.111084
1.079;0.132446
1.08;0.154724
1.081;0.177917
1.082;0.201416
1.083;0.224915
1.084;0.247803
1.085;0.26947
1.086;0.289307
1.087;0.306702
1.088;0.321045
1.089;0.331726
1.09;0.338745
1.091;0.341187
1.092;0.339661
1.093;0.333252
1.094;0.322571
1.095;0.307007
1.096;0.28717
1.097;0.263367
1.098;0.235291
1.099;0.203857
1.1;0.169678
1.101;0.132751
1.102;0.0946045
1.103;0.0552368
1.104;0.0161743
1.105;-0.0216675
1.106;-0.0576782
1.107;-0.0918579
1.108;-0.123291
1.109;-0.152283
1.11;-0.178223
1.111;-0.201416
1.112;-0.221252
1.113;-0.237732
1.114;-0.250854
1.115;-0.260315
1.116;-0.266113
1.117;-0.268555
1.118;-0.268555
1.119;-0.266113
1.12;-0.261841
1.121;-0.256653
1.122;-0.250244
1.123;-0.243225
1.124;-0.235596
1.125;-0.227966
1.126;-0.220032
1.127;-0.212097
1.128;-0.204163
1.129;-0.196228
1.13;-0.187988
1.131;-0.180054
1.132;-0.171814
1.133;-0.163269
1.134;-0.154419
1.135;-0.145569
1.136;-0.136414
1.137;-0.127563
1.138;-0.118713
1.139;-0.110168
1.14;-0.101929
1.141;-0.0939941
1.142;-0.0866699
1.143;-0.0799561
1.144;-0.0741577
1.145;-0.0689697
1.146;-0.0646973
1.147;-0.0613403
1.148;-0.0588989
1.149;-0.057373
1.15;-0.0561523
1.151;-0.055542
1.152;-0.0549316
1.153;-0.0549316
1.154;-0.0549316
1.155;-0.0552368
1.156;-0.055542
1.157;-0.0558472
1.158;-0.0561523
1.159;-0.0564575
1.16;-0.0564575
1.161;-0.0561523
1.162;-0.0558472
1.163;-0.055542
1.164;-0.0549316
1.165;-0.0540161
1.166;-0.0527954
1.167;-0.0512695
1.168;-0.0491333
1.169;-0.0469971
1.17;-0.0448608
1.171;-0.0427246
1.172;-0.0405884
1.173;-0.0387573
1.174;-0.0372314
1.175;-0.0357056
1.176;-0.0344849
1.177;-0.0335693
1.178;-0.032959
1.179;-0.0323486
1.18;-0.0317383
1.181;-0.0311279
1.182;-0.0302124
1.183;-0.0296021
1.184;-0.0286865
1.185;-0.0283813
1.186;-0.027771
1.187;-0.027771
1.188;-0.027771
1.189;-0.0280762
1.19;-0.0283813
1.191;-0.0292969
1.192;-0.0299072
1.193;-0.0311279
1.194;-0.0323486
1.195;-0.0332642
1.196;-0.0341797
1.197;-0.0350952
1.198;-0.0357056
1.199;-0.0363159
1.2;-0.0366211
1.201;-0.0372314
1.202;-0.0375366
1.203;-0.0378418
1.204;-0.0378418
1.205;-0.0378418
1.206;-0.0372314
1.207;-0.0366211
1.208;-0.0360107
1.209;-0.0350952
1.21;-0.0341797
1.211;-0.0332642
1.212;-0.0320435
1.213;-0.0311279
1.214;-0.0299072
1.215;-0.0283813
1.216;-0.0268555
1.217;-0.0256348
1.218;-0.0244141
1.219;-0.0231934
1.22;-0.022583
1.221;-0.022583
1.222;-0.022583
1.223;-0.0231934
1.224;-0.0238037
1.225;-0.0244141
1.226;-0.0247192
1.227;-0.0253296
1.228;-0.0256348
1.229;-0.0262451
1.23;-0.0268555
1.231;-0.0274658
1.232;-0.0283813
1.233;-0.0289917
1.234;-0.0292969
1.235;-0.0296021
1.236;-0.0296021
1.237;-0.0296021
1.238;-0.0296021
1.239;-0.0292969
1.24;-0.0286865
1.241;-0.0280762
1.242;-0.0274658
1.243;-0.0265503
1.244;-0.0262451
1.245;-0.0256348
1.246;-0.0256348
1.247;-0.0256348
1.248;-0.0256348
1.249;-0.0256348
1.25;-0.0253296
1.251;-0.0247192
1.252;-0.0244141
1.253;-0.0238037
1.254;-0.0238037
1.255;-0.0234985
1.256;-0.0234985
1.257;-0.0231934
1.258;-0.022583
1.259;-0.0222778
1.26;-0.0216675
1.261;-0.0213623
1.262;-0.020752
1.263;-0.0201416
1.264;-0.0189209
1.265;-0.017395
1.266;-0.0158691
1.267;-0.0140381
1.268;-0.012207
1.269;-0.0100708
1.27;-0.00823975
1.271;-0.00640869
1.272;-0.00518799
1.273;-0.00366211
1.274;-0.00244141
1.275;-0.00152588
1.276;-0.000305176
1.277;0.000915527
1.278;0.00183105
1.279;0.00305176
1.28;0.00427246
1.281;0.00518799
1.282;0.00610352
1.283;0.00671387
1.284;0.00732422
1.285;0.00793457
1.286;0.00854492
1.287;0.00915527
1.288;0.0100708
1.289;0.0109863
1.29;0.0125122
1.291;0.0143433
1.292;0.0164795
1.293;0.0186157
1.294;0.0210571
1.295;0.0234985
1.296;0.0259399
1.297;0.0283813
1.298;0.0308228
1.299;0.032959
1.3;0.0350952
1.301;0.0378418
1.302;0.0408936
1.303;0.0439453
1.304;0.0473022
1.305;0.050354
1.306;0.0534058
1.307;0.0564575
1.308;0.0592041
1.309;0.0616455
1.31;0.0640869
1.311;0.065918
1.312;0.067749
1.313;0.0692749
1.314;0.0708008
1.315;0.0720215
1.316;0.0735474
1.317;0.0747681
1.318;0.0756836
1.319;0.0769043
1.32;0.078125
1.321;0.0793457
1.322;0.0805664
1.323;0.0817871
1.324;0.0827026
1.325;0.0836182
1.326;0.0842285
1.327;0.0848389
1.328;0.085144
1.329;0.0854492
1.33;0.0857544
1.331;0.0860596
1.332;0.0866699
1.333;0.0869751
1.334;0.0875854
1.335;0.0878906
1.336;0.0881958
1.337;0.088501
1.338;0.0888062
1.339;0.0888062
1.34;0.088501
1.341;0.0878906
1.342;0.0869751
1.343;0.0857544
1.344;0.0845337
1.345;0.0836182
1.346;0.0823975
1.347;0.0808716
1.348;0.0796509
1.349;0.078125
1.35;0.0765991
1.351;0.0753784
1.352;0.0741577
1.353;0.0726318
1.354;0.0714111
1.355;0.0698853
1.356;0.0680542
1.357;0.0662231
1.358;0.0643921
1.359;0.0622559
1.36;0.0601196
1.361;0.0576782
1.362;0.0549316
1.363;0.0518799
1.364;0.0488281
1.365;0.0454712
1.366;0.0421143
1.367;0.0387573
1.368;0.03479
1.369;0.0308228
1.37;0.0265503
1.371;0.022583
1.372;0.0186157
1.373;0.0146484
1.374;0.0106812
1.375;0.00701904
1.376;0.00335693
1.377;0
1.378;-0.00335693
1.379;-0.00610352
1.38;-0.00854492
1.381;-0.0106812
1.382;-0.0128174
1.383;-0.0149536
1.384;-0.0170898
1.385;-0.0192261
1.386;-0.0210571
1.387;-0.0228882
1.388;-0.0241089
1.389;-0.0253296
1.39;-0.0265503
1.391;-0.0274658
1.392;-0.0286865
1.393;-0.0299072
1.394;-0.0308228
1.395;-0.0320435
1.396;-0.0335693
1.397;-0.03479
1.398;-0.0366211
1.399;-0.038147
1.4;-0.039978
1.401;-0.0415039
1.402;-0.0427246
1.403;-0.0442505
1.404;-0.0454712
1.405;-0.0466919
1.406;-0.0476074
1.407;-0.0488281
1.408;-0.0500488
1.409;-0.0512695
1.41;-0.0527954
1.411;-0.0540161
1.412;-0.0552368
1.413;-0.0561523
1.414;-0.0567627
1.415;-0.057373
1.416;-0.0579834
1.417;-0.0579834
1.418;-0.0582886
1.419;-0.0585938
1.42;-0.0588989
1.421;-0.0595093
1.422;-0.0601196
1.423;-0.0604248
1.424;-0.0610352
1.425;-0.0613403
1.426;-0.0616455
1.427;-0.0613403
1.428;-0.0610352
1.429;-0.0604248
1.43;-0.0598145
1.431;-0.0595093
1.432;-0.0592041
1.433;-0.0592041
1.434;-0.0595093
1.435;-0.0598145
1.436;-0.0601196
1.437;-0.0601196
1.438;-0.0601196
1.439;-0.0598145
1.44;-0.0592041
1.441;-0.0585938
1.442;-0.0576782
1.443;-0.0567627
1.444;-0.0558472
1.445;-0.0552368
1.446;-0.0543213
1.447;-0.0540161
1.448;-0.0534058
1.449;-0.0524902
1.45;-0.0518799
1.451;-0.0506592
1.452;-0.0497437
1.453;-0.0485229
1.454;-0.0476074
1.455;-0.0466919
1.456;-0.0457764
1.457;-0.045166
1.458;-0.0448608
1.459;-0.0442505
1.46;-0.0439453
1.461;-0.0439453
1.462;-0.0436401
1.463;-0.043335
1.464;-0.0430298
1.465;-0.0427246
1.466;-0.0424194
1.467;-0.0418091
1.468;-0.0411987
1.469;-0.0405884
1.47;-0.039978
1.471;-0.0393677
1.472;-0.0387573
1.473;-0.038147
1.474;-0.0372314
1.475;-0.0363159
1.476;-0.0354004
1.477;-0.0344849
1.478;-0.0338745
1.479;-0.0332642
1.48;-0.032959
1.481;-0.0323486
1.482;-0.0317383
1.483;-0.0308228
1.484;-0.0302124
1.485;-0.0292969
1.486;-0.0286865
1.487;-0.0283813
1.488;-0.0274658
1.489;-0.0265503
1.49;-0.0253296
1.491;-0.0244141
1.492;-0.0234985
1.493;-0.0231934
1.494;-0.0228882
1.495;-0.0228882
1.496;-0.0228882
1.497;-0.022583
1.498;-0.0222778
1.499;-0.0219727
1.5;-0.0213623
1.501;-0.0210571
1.502;-0.0210571
1.503;-0.0213623
1.504;-0.0216675
1.505;-0.0219727
1.506;-0.022583
1.507;-0.0228882
1.508;-0.0234985
1.509;-0.0241089
1.51;-0.0247192
1.511;-0.0253296
1.512;-0.0256348
1.513;-0.0262451
1.514;-0.0265503
1.515;-0.0268555
1.516;-0.0271606
1.517;-0.0274658
1.518;-0.027771
1.519;-0.027771
1.52;-0.027771
1.521;-0.027771
1.522;-0.027771
1.523;-0.0274658
1.524;-0.0274658
1.525;-0.0274658
1.526;-0.0274658
1.527;-0.027771
1.528;-0.0280762
1.529;-0.0286865
1.53;-0.0296021
1.531;-0.0302124
1.532;-0.0311279
1.533;-0.0320435
1.534;-0.0332642
1.535;-0.0341797
1.536;-0.0350952
1.537;-0.0354004
1.538;-0.0354004
1.539;-0.0354004
1.54;-0.0350952
1.541;-0.03479
1.542;-0.0344849
1.543;-0.0344849
1.544;-0.03479
1.545;-0.0354004
1.546;-0.0360107
1.547;-0.0366211
1.548;-0.0369263
1.549;-0.0375366
1.55;-0.0375366
1.551;-0.0375366
1.552;-0.0372314
1.553;-0.0369263
1.554;-0.0363159
1.555;-0.0357056
1.556;-0.0354004
1.557;-0.03479
1.558;-0.0344849
1.559;-0.0341797
1.56;-0.0338745
1.561;-0.0335693
1.562;-0.032959
1.563;-0.0323486
1.564;-0.0314331
1.565;-0.0305176
1.566;-0.0292969
1.567;-0.0280762
1.568;-0.0271606
1.569;-0.0265503
1.57;-0.0259399
1.571;-0.0256348
1.572;-0.0253296
1.573;-0.0256348
1.574;-0.0259399
1.575;-0.0265503
1.576;-0.027771
1.577;-0.0286865
1.578;-0.0299072
1.579;-0.0314331
1.58;-0.0326538
1.581;-0.0338745
1.582;-0.0354004
1.583;-0.0366211
1.584;-0.0378418
1.585;-0.0387573
1.586;-0.0393677
1.587;-0.039978
1.588;-0.0402832
1.589;-0.0402832
1.59;-0.0405884
1.591;-0.0402832
1.592;-0.0402832
1.593;-0.039978
1.594;-0.0393677
1.595;-0.0390625
1.596;-0.038147
1.597;-0.0375366
1.598;-0.0363159
1.599;-0.0354004
1.6;-0.0344849
1.601;-0.0338745
1.602;-0.0332642
1.603;-0.032959
1.604;-0.032959
1.605;-0.0332642
1.606;-0.0338745
1.607;-0.0350952
1.608;-0.0360107
1.609;-0.0369263
1.61;-0.0375366
1.611;-0.0375366
1.612;-0.0375366
1.613;-0.0369263
1.614;-0.0366211
1.615;-0.0366211
1.616;-0.0363159
1.617;-0.0360107
1.618;-0.0354004
1.619;-0.0341797
1.62;-0.032959
1.621;-0.0311279
1.622;-0.0289917
1.623;-0.0262451
1.624;-0.0231934
1.625;-0.0201416
1.626;-0.0170898
1.627;-0.0143433
1.628;-0.0115967
1.629;-0.00946045
1.63;-0.00732422
1.631;-0.00518799
1.632;-0.00305176
1.633;-0.000610352
1.634;0.00213623
1.635;0.00518799
1.636;0.00823975
1.637;0.0115967
1.638;0.0149536
1.639;0.0186157
1.64;0.0219727
1.641;0.0253296
1.642;0.0286865
1.643;0.0323486
1.644;0.0360107
1.645;0.0396729
1.646;0.043335
1.647;0.0469971
1.648;0.050354
1.649;0.0537109
1.65;0.057373
1.651;0.06073
1.652;0.0640869
1.653;0.0671387
1.654;0.0695801
1.655;0.0714111
1.656;0.0726318
1.657;0.0732422
1.658;0.072937
1.659;0.0723267
1.66;0.0708008
1.661;0.0689697
1.662;0.0671387
1.663;0.0650024
1.664;0.0628662
1.665;0.06073
1.666;0.0582886
1.667;0.055542
1.668;0.0527954
1.669;0.0497437
1.67;0.0466919
1.671;0.0436401
1.672;0.0408936
1.673;0.0378418
1.674;0.0350952
1.675;0.0323486
1.676;0.0299072
1.677;0.0274658
1.678;0.0250244
1.679;0.0222778
1.68;0.0195312
1.681;0.0164795
1.682;0.0134277
1.683;0.010376
1.684;0.00701904
1.685;0.00335693
1.686;-0.000305176
1.687;-0.00427246
1.688;-0.00823975
1.689;-0.0125122
1.69;-0.0164795
1.691;-0.0201416
1.692;-0.0241089
1.693;-0.027771
1.694;-0.0317383
1.695;-0.0354004
1.696;-0.0387573
1.697;-0.0418091
1.698;-0.0445557
1.699;-0.0473022
1.7;-0.0497437
1.701;-0.0518799
1.702;-0.0537109
1.703;-0.0552368
1.704;-0.0564575
1.705;-0.0570679
1.706;-0.0576782
1.707;-0.0576782
1.708;-0.0576782
1.709;-0.057373
1.71;-0.057373
1.711;-0.0570679
1.712;-0.0570679
1.713;-0.0567627
1.714;-0.0567627
1.715;-0.0564575
1.716;-0.0564575
1.717;-0.0564575
1.718;-0.0567627
1.719;-0.0570679
1.72;-0.0576782
1.721;-0.0585938
1.722;-0.0595093
1.723;-0.0604248
1.724;-0.0616455
1.725;-0.0619507
1.726;-0.0619507
1.727;-0.0610352
1.728;-0.0595093
1.729;-0.0582886
1.73;-0.0567627
1.731;-0.055542
1.732;-0.0546265
1.733;-0.0540161
1.734;-0.0534058
1.735;-0.0527954
1.736;-0.0521851
1.737;-0.0515747
1.738;-0.0506592
1.739;-0.0500488
1.74;-0.0494385
1.741;-0.0491333
1.742;-0.0494385
1.743;-0.0497437
1.744;-0.0500488
1.745;-0.0506592
1.746;-0.0515747
1.747;-0.0524902
1.748;-0.0537109
1.749;-0.0549316
1.75;-0.0561523
1.751;-0.0567627
1.752;-0.0570679
1.753;-0.0564575
1.754;-0.0549316
1.755;-0.0521851
1.756;-0.0476074
1.757;-0.0415039
1.758;-0.0335693
1.759;-0.0234985
1.76;-0.0119019
1.761;0.0012207
1.762;0.0161743
1.763;0.0323486
1.764;0.050354
1.765;0.0698853
1.766;0.0915527
1.767;0.114746
1.768;0.139465
1.769;0.165405
1.77;0.19165
1.771;0.218506
1.772;0.245056
1.773;0.270691
1.774;0.295105
1.775;0.317383
1.776;0.336914
1.777;0.353088
1.778;0.365295
1.779;0.37323
1.78;0.376282
1.781;0.375061
1.782;0.368652
1.783;0.357056
1.784;0.340576
1.785;0.318298
1.786;0.291443
1.787;0.26001
1.788;0.224915
1.789;0.186768
1.79;0.146484
1.791;0.104675
1.792;0.062561
1.793;0.0204468
1.794;-0.020752
1.795;-0.0604248
1.796;-0.0985718
1.797;-0.133972
1.798;-0.166931
1.799;-0.196533
1.8;-0.223083
1.801;-0.245667
1.802;-0.264893
1.803;-0.279846
1.804;-0.291443
1.805;-0.299072
1.806;-0.30304
1.807;-0.30365
1.808;-0.301819
1.809;-0.297852
1.81;-0.292053
1.811;-0.285034
1.812;-0.276794
1.813;-0.267639
1.814;-0.257874
1.815;-0.247803
1.816;-0.237122
1.817;-0.226746
1.818;-0.216064
1.819;-0.205994
1.82;-0.195618
1.821;-0.185547
1.822;-0.175171
1.823;-0.16449
1.824;-0.153809
1.825;-0.143433
1.826;-0.133362
1.827;-0.123596
1.828;-0.114746
1.829;-0.106812
1.83;-0.0994873
1.831;-0.0930786
1.832;-0.0878906
1.833;-0.083313
1.834;-0.0799561
1.835;-0.0769043
1.836;-0.0747681
1.837;-0.072937
1.838;-0.0717163
1.839;-0.071106
1.84;-0.071106
1.841;-0.0717163
1.842;-0.0723267
1.843;-0.0726318
1.844;-0.0726318
1.845;-0.0723267
1.846;-0.0723267
1.847;-0.0723267
1.848;-0.0720215
1.849;-0.0714111
1.85;-0.0704956
1.851;-0.0692749
1.852;-0.067749
1.853;-0.0662231
1.854;-0.0643921
1.855;-0.0622559
1.856;-0.0601196
1.857;-0.0579834
1.858;-0.0561523
1.859;-0.0543213
1.86;-0.0524902
1.861;-0.0509644
1.862;-0.0494385
1.863;-0.0479126
1.864;-0.0466919
1.865;-0.0454712
1.866;-0.0445557
1.867;-0.0439453
1.868;-0.0436401
1.869;-0.0436401
1.87;-0.0436401
1.871;-0.0439453
1.872;-0.0439453
1.873;-0.0442505
1.874;-0.0442505
1.875;-0.0442505
1.876;-0.0445557
1.877;-0.0448608
1.878;-0.0460815
1.879;-0.0469971
1.88;-0.0479126
1.881;-0.0485229
1.882;-0.0485229
1.883;-0.0482178
1.884;-0.0482178
1.885;-0.0479126
1.886;-0.0482178
1.887;-0.0488281
1.888;-0.0494385
1.889;-0.0497437
1.89;-0.0494385
1.891;-0.0491333
1.892;-0.0482178
1.893;-0.0473022
1.894;-0.0463867
1.895;-0.045166
1.896;-0.0445557
1.897;-0.0439453
1.898;-0.043335
1.899;-0.0427246
1.9;-0.0418091
1.901;-0.0405884
1.902;-0.0390625
1.903;-0.0372314
1.904;-0.0357056
1.905;-0.0341797
1.906;-0.0332642
1.907;-0.0323486
1.908;-0.0317383
1.909;-0.0311279
1.91;-0.0305176
1.911;-0.0302124
1.912;-0.0302124
1.913;-0.0302124
1.914;-0.0305176
1.915;-0.0308228
1.916;-0.0308228
1.917;-0.0311279
1.918;-0.0314331
1.919;-0.0317383
1.92;-0.0320435
1.921;-0.0326538
1.922;-0.0335693
1.923;-0.03479
1.924;-0.0360107
1.925;-0.0372314
1.926;-0.038147
1.927;-0.0384521
1.928;-0.038147
1.929;-0.0378418
1.93;-0.0372314
1.931;-0.0363159
1.932;-0.0360107
1.933;-0.0354004
1.934;-0.0350952
1.935;-0.0344849
1.936;-0.0338745
1.937;-0.032959
1.938;-0.0320435
1.939;-0.0311279
1.94;-0.0299072
1.941;-0.0283813
1.942;-0.0268555
1.943;-0.0256348
1.944;-0.0241089
1.945;-0.0231934
1.946;-0.0222778
1.947;-0.0216675
1.948;-0.0213623
1.949;-0.0216675
1.95;-0.0216675
1.951;-0.0219727
1.952;-0.022583
1.953;-0.0228882
1.954;-0.0228882
1.955;-0.0228882
1.956;-0.0228882
1.957;-0.022583
1.958;-0.022583
1.959;-0.022583
1.96;-0.022583
1.961;-0.022583
1.962;-0.0222778
1.963;-0.0219727
1.964;-0.0213623
1.965;-0.0204468
1.966;-0.0192261
1.967;-0.0177002
1.968;-0.0161743
1.969;-0.0143433
1.97;-0.012207
1.971;-0.0100708
1.972;-0.00762939
1.973;-0.00549316
1.974;-0.00335693
1.975;-0.0012207
1.976;0.000915527
1.977;0.00335693
1.978;0.00640869
1.979;0.00976562
1.98;0.0131226
1.981;0.0161743
1.982;0.0186157
1.983;0.0210571
1.984;0.0234985
1.985;0.0259399
1.986;0.0283813
1.987;0.0311279
1.988;0.0341797
1.989;0.0375366
1.99;0.0405884
1.991;0.0436401
1.992;0.0466919
1.993;0.0494385
1.994;0.0524902
1.995;0.0552368
1.996;0.0582886
1.997;0.0613403
1.998;0.0643921
1.999;0.0674438
2;0.0708008
2.001;0.0738525
2.002;0.0765991
2.003;0.0793457
2.004;0.0820923
2.005;0.0845337
2.006;0.0869751
2.007;0.0894165
2.008;0.0915527
2.009;0.0939941
2.01;0.0964355
2.011;0.098877
2.012;0.101013
2.013;0.102539
2.014;0.104065
2.015;0.104675
2.016;0.105286
2.017;0.105896
2.018;0.106201
2.019;0.106812
2.02;0.107117
2.021;0.107422
2.022;0.107727
2.023;0.108032
2.024;0.108032
2.025;0.108337
2.026;0.108337
2.027;0.108032
2.028;0.107727
2.029;0.107117
2.03;0.106201
2.031;0.105286
2.032;0.104065
2.033;0.103149
2.034;0.101929
2.035;0.100708
2.036;0.0994873
2.037;0.0985718
2.038;0.0973511
2.039;0.0958252
2.04;0.0942993
2.041;0.0921631
2.042;0.090332
2.043;0.0878906
2.044;0.0854492
2.045;0.0823975
2.046;0.0796509
2.047;0.0762939
2.048;0.072937
2.049;0.0692749
2.05;0.065918
2.051;0.062561
2.052;0.0588989
2.053;0.0552368
2.054;0.0512695
2.055;0.0476074
2.056;0.0436401
2.057;0.039978
2.058;0.0363159
2.059;0.0326538
2.06;0.0296021
2.061;0.0262451
2.062;0.0228882
2.063;0.0198364
2.064;0.0164795
2.065;0.0134277
2.066;0.0109863
2.067;0.00854492
2.068;0.00640869
2.069;0.00427246
2.07;0.00213623
2.071;0
2.072;-0.00244141
2.073;-0.00488281
2.074;-0.00732422
2.075;-0.00915527
2.076;-0.0109863
2.077;-0.0128174
2.078;-0.0146484
2.079;-0.0164795
2.08;-0.0186157
2.081;-0.0210571
2.082;-0.0234985
2.083;-0.0262451
2.084;-0.0292969
2.085;-0.0320435
2.086;-0.03479
2.087;-0.0375366
2.088;-0.0396729
2.089;-0.0415039
2.09;-0.0436401
2.091;-0.0454712
2.092;-0.0469971
2.093;-0.0488281
2.094;-0.050354
2.095;-0.0515747
2.096;-0.0527954
2.097;-0.0537109
2.098;-0.0546265
2.099;-0.0558472
2.1;-0.0567627
2.101;-0.0576782
2.102;-0.0585938
2.103;-0.0588989
2.104;-0.0592041
2.105;-0.0592041
2.106;-0.0592041
2.107;-0.0592041
2.108;-0.0588989
2.109;-0.0582886
2.11;-0.0579834
2.111;-0.057373
2.112;-0.0570679
2.113;-0.0570679
2.114;-0.0570679
2.115;-0.0570679
2.116;-0.057373
2.117;-0.0576782
2.118;-0.0579834
2.119;-0.0576782
2.12;-0.057373
2.121;-0.0570679
2.122;-0.0561523
2.123;-0.055542
2.124;-0.0546265
2.125;-0.0543213
2.126;-0.0540161
2.127;-0.0540161
2.128;-0.0540161
2.129;-0.0540161
2.13;-0.0537109
2.131;-0.0531006
2.132;-0.0524902
2.133;-0.0518799
2.134;-0.0512695
2.135;-0.0506592
2.136;-0.0500488
2.137;-0.0494385
2.138;-0.0488281
2.139;-0.0482178
2.14;-0.0479126
2.141;-0.0473022
2.142;-0.0466919
2.143;-0.0457764
2.144;-0.0448608
2.145;-0.0439453
2.146;-0.043335
2.147;-0.0430298
2.148;-0.0430298
2.149;-0.0430298
2.15;-0.043335
2.151;-0.043335
2.152;-0.043335
2.153;-0.0427246
2.154;-0.0424194
2.155;-0.0421143
2.156;-0.0418091
2.157;-0.0418091
2.158;-0.0418091
2.159;-0.0415039
2.16;-0.0408936
2.161;-0.039978
2.162;-0.0387573
2.163;-0.0375366
2.164;-0.0363159
2.165;-0.0350952
2.166;-0.0338745
2.167;-0.032959
2.168;-0.0323486
2.169;-0.0317383
2.17;-0.0311279
2.171;-0.0302124
2.172;-0.0296021
2.173;-0.0286865
2.174;-0.0280762
2.175;-0.0274658
2.176;-0.0268555
2.177;-0.0262451
2.178;-0.0262451
2.179;-0.0262451
2.18;-0.0262451
2.181;-0.0265503
2.182;-0.0268555
2.183;-0.0268555
2.184;-0.0268555
2.185;-0.0268555
2.186;-0.0268555
2.187;-0.0268555
2.188;-0.0271606
2.189;-0.0271606
2.19;-0.0274658
2.191;-0.027771
2.192;-0.027771
2.193;-0.027771
2.194;-0.027771
2.195;-0.027771
2.196;-0.027771
2.197;-0.0280762
2.198;-0.0283813
2.199;-0.0286865
2.2;-0.0289917
2.201;-0.0296021
2.202;-0.0302124
2.203;-0.0311279
2.204;-0.0317383
2.205;-0.032959
2.206;-0.0338745
2.207;-0.03479
2.208;-0.0354004
2.209;-0.0360107
2.21;-0.0366211
2.211;-0.0366211
2.212;-0.0366211
2.213;-0.0366211
2.214;-0.0366211
2.215;-0.0369263
2.216;-0.0372314
2.217;-0.0375366
2.218;-0.0378418
2.219;-0.0378418
2.22;-0.0375366
2.221;-0.0369263
2.222;-0.0360107
2.223;-0.0350952
2.224;-0.0344849
2.225;-0.0335693
2.226;-0.0326538
2.227;-0.0317383
2.228;-0.0308228
2.229;-0.0296021
2.23;-0.0283813
2.231;-0.0271606
2.232;-0.0262451
2.233;-0.0256348
2.234;-0.0250244
2.235;-0.0247192
2.236;-0.0244141
2.237;-0.0241089
2.238;-0.0241089
2.239;-0.0241089
2.24;-0.0244141
2.241;-0.0247192
2.242;-0.0250244
2.243;-0.0250244
2.244;-0.0256348
2.245;-0.0262451
2.246;-0.0271606
2.247;-0.0283813
2.248;-0.0292969
2.249;-0.0299072
2.25;-0.0305176
2.251;-0.0311279
2.252;-0.0317383
2.253;-0.0323486
2.254;-0.032959
2.255;-0.0335693
2.256;-0.0344849
2.257;-0.0350952
2.258;-0.0360107
2.259;-0.0366211
2.26;-0.0372314
2.261;-0.0372314
2.262;-0.0372314
2.263;-0.0372314
2.264;-0.0375366
2.265;-0.038147
2.266;-0.0387573
2.267;-0.039978
2.268;-0.0415039
2.269;-0.0427246
2.27;-0.0439453
2.271;-0.045166
2.272;-0.0460815
2.273;-0.0469971
2.274;-0.0473022
2.275;-0.0479126
2.276;-0.0482178
2.277;-0.0485229
2.278;-0.0491333
2.279;-0.0500488
2.28;-0.0509644
2.281;-0.0518799
2.282;-0.0524902
2.283;-0.0527954
2.284;-0.0527954
2.285;-0.0521851
2.286;-0.0515747
2.287;-0.0506592
2.288;-0.0497437
2.289;-0.0488281
2.29;-0.0479126
2.291;-0.0469971
2.292;-0.0463867
2.293;-0.0457764
2.294;-0.045166
2.295;-0.0445557
2.296;-0.0439453
2.297;-0.0430298
2.298;-0.0424194
2.299;-0.0415039
2.3;-0.0411987
2.301;-0.0408936
2.302;-0.0408936
2.303;-0.0408936
2.304;-0.0408936
2.305;-0.0408936
2.306;-0.0411987
2.307;-0.0418091
2.308;-0.0421143
2.309;-0.0424194
2.31;-0.0427246
2.311;-0.0427246
2.312;-0.0427246
2.313;-0.0430298
2.314;-0.0430298
2.315;-0.0430298
2.316;-0.0430298
2.317;-0.0430298
2.318;-0.0430298
2.319;-0.043335
2.32;-0.043335
2.321;-0.043335
2.322;-0.043335
2.323;-0.0430298
2.324;-0.0430298
2.325;-0.0430298
2.326;-0.043335
2.327;-0.0436401
2.328;-0.0436401
2.329;-0.0436401
2.33;-0.043335
2.331;-0.0424194
2.332;-0.0411987
2.333;-0.039978
2.334;-0.0384521
2.335;-0.0366211
2.336;-0.0344849
2.337;-0.0317383
2.338;-0.0286865
2.339;-0.0253296
2.34;-0.0219727
2.341;-0.0183105
2.342;-0.0143433
2.343;-0.0100708
2.344;-0.00610352
2.345;-0.00213623
2.346;0.00183105
2.347;0.00579834
2.348;0.00946045
2.349;0.0131226
2.35;0.0164795
2.351;0.0198364
2.352;0.0228882
2.353;0.0259399
2.354;0.0286865
2.355;0.0311279
2.356;0.0335693
2.357;0.0357056
2.358;0.038147
2.359;0.0405884
2.36;0.0427246
2.361;0.0448608
2.362;0.0466919
2.363;0.0479126
2.364;0.0491333
2.365;0.0497437
2.366;0.0506592
2.367;0.0509644
2.368;0.0515747
2.369;0.0518799
2.37;0.0521851
2.371;0.0518799
2.372;0.0509644
2.373;0.0497437
2.374;0.0479126
2.375;0.0457764
2.376;0.0436401
2.377;0.0411987
2.378;0.0384521
2.379;0.0354004
2.38;0.0320435
2.381;0.0286865
2.382;0.0253296
2.383;0.0222778
2.384;0.0198364
2.385;0.017395
2.386;0.015564
2.387;0.0137329
2.388;0.0115967
2.389;0.00946045
2.39;0.00671387
2.391;0.00396729
2.392;0.000915527
2.393;-0.00244141
2.394;-0.00610352
2.395;-0.00976562
2.396;-0.0134277
2.397;-0.017395
2.398;-0.0210571
2.399;-0.0250244
2.4;-0.0292969
2.401;-0.0335693
2.402;-0.0378418
2.403;-0.0424194
2.404;-0.0469971
2.405;-0.0512695
2.406;-0.055542
2.407;-0.0595093
2.408;-0.0631714
2.409;-0.0668335
2.41;-0.0695801
2.411;-0.0723267
2.412;-0.0747681
2.413;-0.0765991
2.414;-0.0784302
2.415;-0.0796509
2.416;-0.0805664
2.417;-0.0811768
2.418;-0.0814819
2.419;-0.0817871
2.42;-0.0817871
2.421;-0.0817871
2.422;-0.0817871
2.423;-0.0814819
2.424;-0.0808716
2.425;-0.0808716
2.426;-0.0808716
2.427;-0.0814819
2.428;-0.0820923
2.429;-0.0827026
2.43;-0.083313
2.431;-0.0839233
2.432;-0.0839233
2.433;-0.0839233
2.434;-0.0836182
2.435;-0.0830078
2.436;-0.0827026
2.437;-0.0820923
2.438;-0.0814819
2.439;-0.0808716
2.44;-0.0799561
2.441;-0.0793457
2.442;-0.0787354
2.443;-0.078125
2.444;-0.0772095
2.445;-0.0765991
2.446;-0.0756836
2.447;-0.0750732
2.448;-0.0747681
2.449;-0.0747681
2.45;-0.0750732
2.451;-0.0756836
2.452;-0.0762939
2.453;-0.0772095
2.454;-0.0784302
2.455;-0.0793457
2.456;-0.0808716
2.457;-0.0823975
2.458;-0.0842285
2.459;-0.0860596
2.46;-0.0875854
2.461;-0.088501
2.462;-0.088501
2.463;-0.0878906
2.464;-0.0866699
2.465;-0.0845337
2.466;-0.0817871
2.467;-0.0778198
2.468;-0.0726318
2.469;-0.0656128
2.47;-0.0567627
2.471;-0.0460815
2.472;-0.0338745
2.473;-0.0201416
2.474;-0.00457764
2.475;0.0125122
2.476;0.0311279
2.477;0.0515747
2.478;0.0735474
2.479;0.0973511
2.48;0.122375
2.481;0.148315
2.482;0.174561
2.483;0.200806
2.484;0.227051
2.485;0.25238
2.486;0.276184
2.487;0.297546
2.488;0.315857
2.489;0.330811
2.49;0.342102
2.491;0.349121
2.492;0.351562
2.493;0.349121
2.494;0.341492
2.495;0.328369
2.496;0.310059
2.497;0.286255
2.498;0.257874
2.499;0.225525
2.5;0.190125
2.501;0.151672
2.502;0.111389
2.503;0.0698853
2.504;0.027771
2.505;-0.0140381
2.506;-0.0552368
2.507;-0.0946045
2.508;-0.132141
2.509;-0.167236
2.51;-0.198975
2.511;-0.227356
2.512;-0.252075
2.513;-0.272827
2.514;-0.289307
2.515;-0.301819
2.516;-0.310364
2.517;-0.315552
2.518;-0.317688
2.519;-0.317078
2.52;-0.314331
2.521;-0.309753
2.522;-0.303345
2.523;-0.295715
2.524;-0.28717
2.525;-0.278015
2.526;-0.268555
2.527;-0.259094
2.528;-0.249939
2.529;-0.240784
2.53;-0.231628
2.531;-0.222168
2.532;-0.212097
2.533;-0.202332
2.534;-0.192566
2.535;-0.183105
2.536;-0.173645
2.537;-0.164795
2.538;-0.155945
2.539;-0.1474
2.54;-0.139465
2.541;-0.131836
2.542;-0.124817
2.543;-0.118103
2.544;-0.112
2.545;-0.106506
2.546;-0.101624
2.547;-0.0976562
2.548;-0.0946045
2.549;-0.0921631
2.55;-0.0900269
2.551;-0.088501
2.552;-0.0872803
2.553;-0.0863647
2.554;-0.0860596
2.555;-0.0860596
2.556;-0.0863647
2.557;-0.0866699
2.558;-0.0869751
2.559;-0.0872803
2.56;-0.0872803
2.561;-0.0869751
2.562;-0.0866699
2.563;-0.0860596
2.564;-0.0854492
2.565;-0.0845337
2.566;-0.0839233
2.567;-0.083313
2.568;-0.0827026
2.569;-0.0817871
2.57;-0.0811768
2.571;-0.0802612
2.572;-0.0796509
2.573;-0.0790405
2.574;-0.0784302
2.575;-0.078125
2.576;-0.0778198
2.577;-0.0778198
2.578;-0.0778198
2.579;-0.078125
2.58;-0.0784302
2.581;-0.0787354
2.582;-0.0793457
2.583;-0.0799561
2.584;-0.0802612
2.585;-0.0805664
2.586;-0.0805664
2.587;-0.0805664
2.588;-0.0805664
2.589;-0.0799561
2.59;-0.0793457
2.591;-0.0778198
2.592;-0.0762939
2.593;-0.0741577
2.594;-0.0720215
2.595;-0.0698853
2.596;-0.0680542
2.597;-0.0662231
2.598;-0.0643921
2.599;-0.062561
2.6;-0.06073
2.601;-0.0592041
2.602;-0.0579834
2.603;-0.0570679
2.604;-0.0564575
2.605;-0.0561523
2.606;-0.0561523
2.607;-0.0564575
2.608;-0.0564575
2.609;-0.0567627
2.61;-0.0570679
2.611;-0.057373
2.612;-0.0582886
2.613;-0.0592041
2.614;-0.0604248
2.615;-0.0616455
2.616;-0.0628662
2.617;-0.0637817
2.618;-0.0643921
2.619;-0.0643921
2.62;-0.0637817
2.621;-0.0631714
2.622;-0.0622559
2.623;-0.0613403
2.624;-0.0604248
2.625;-0.0595093
2.626;-0.0588989
2.627;-0.0585938
2.628;-0.0585938
2.629;-0.0582886
2.63;-0.0576782
2.631;-0.0570679
2.632;-0.0558472
2.633;-0.0549316
2.634;-0.0537109
2.635;-0.0527954
2.636;-0.0521851
2.637;-0.0518799
2.638;-0.0518799
2.639;-0.0521851
2.64;-0.0524902
2.641;-0.0527954
2.642;-0.0527954
2.643;-0.0527954
2.644;-0.0524902
2.645;-0.0518799
2.646;-0.0515747
2.647;-0.0509644
2.648;-0.050354
2.649;-0.0494385
2.65;-0.0488281
2.651;-0.0482178
2.652;-0.0476074
2.653;-0.0473022
2.654;-0.0466919
2.655;-0.0460815
2.656;-0.0454712
2.657;-0.0448608
2.658;-0.0439453
2.659;-0.0427246
2.66;-0.0415039
2.661;-0.0405884
2.662;-0.0393677
2.663;-0.0384521
2.664;-0.0378418
2.665;-0.0372314
2.666;-0.0366211
2.667;-0.0360107
2.668;-0.0350952
2.669;-0.0344849
2.67;-0.0335693
2.671;-0.032959
2.672;-0.0317383
2.673;-0.0308228
2.674;-0.0299072
2.675;-0.0286865
2.676;-0.0274658
2.677;-0.0265503
2.678;-0.0256348
2.679;-0.0244141
2.68;-0.0228882
2.681;-0.020752
2.682;-0.0183105
2.683;-0.0161743
2.684;-0.0140381
2.685;-0.012207
2.686;-0.0106812
2.687;-0.00946045
2.688;-0.00762939
2.689;-0.00549316
2.69;-0.00274658
2.691;0.000610352
2.692;0.00396729
2.693;0.00762939
2.694;0.0109863
2.695;0.0146484
2.696;0.0177002
2.697;0.020752
2.698;0.0241089
2.699;0.0271606
2.7;0.0299072
2.701;0.032959
2.702;0.0357056
2.703;0.0390625
2.704;0.0427246
2.705;0.0463867
2.706;0.0500488
2.707;0.0537109
2.708;0.0567627
2.709;0.0595093
2.71;0.0616455
2.711;0.0634766
2.712;0.0653076
2.713;0.0668335
2.714;0.0683594
2.715;0.0701904
2.716;0.0723267
2.717;0.0744629
2.718;0.0762939
2.719;0.078125
2.72;0.0799561
2.721;0.0811768
2.722;0.0827026
2.723;0.0839233
2.724;0.085144
2.725;0.0863647
2.726;0.0872803
2.727;0.0881958
2.728;0.088501
2.729;0.0891113
2.73;0.0894165
2.731;0.0900269
2.732;0.090332
2.733;0.0906372
2.734;0.0909424
2.735;0.0906372
2.736;0.0906372
2.737;0.090332
2.738;0.0900269
2.739;0.0897217
2.74;0.0894165
2.741;0.0891113
2.742;0.088501
2.743;0.0878906
2.744;0.0872803
2.745;0.0863647
2.746;0.085144
2.747;0.0839233
2.748;0.0827026
2.749;0.0814819
2.75;0.0799561
2.751;0.0784302
2.752;0.0765991
2.753;0.0747681
2.754;0.072937
2.755;0.0708008
2.756;0.0686646
2.757;0.0662231
2.758;0.0634766
2.759;0.0610352
2.76;0.0582886
2.761;0.055542
2.762;0.0527954
2.763;0.0497437
2.764;0.0469971
2.765;0.0436401
2.766;0.0408936
2.767;0.038147
2.768;0.0357056
2.769;0.0332642
2.77;0.0308228
2.771;0.027771
2.772;0.0247192
2.773;0.0213623
2.774;0.0177002
2.775;0.0140381
2.776;0.010376
2.777;0.00701904
2.778;0.00366211
2.779;0.000305176
2.78;-0.00305176
2.781;-0.00640869
2.782;-0.0100708
2.783;-0.0140381
2.784;-0.0180054
2.785;-0.0216675
2.786;-0.0250244
2.787;-0.0280762
2.788;-0.0311279
2.789;-0.0335693
2.79;-0.0357056
2.791;-0.0378418
2.792;-0.0396729
2.793;-0.0411987
2.794;-0.0430298
2.795;-0.0448608
2.796;-0.0463867
2.797;-0.0479126
2.798;-0.0491333
2.799;-0.0500488
2.8;-0.0509644
2.801;-0.0515747
2.802;-0.0521851
2.803;-0.0527954
2.804;-0.0534058
2.805;-0.0543213
2.806;-0.055542
2.807;-0.057373
2.808;-0.0588989
2.809;-0.0604248
2.81;-0.0616455
2.811;-0.0622559
2.812;-0.0628662
2.813;-0.0631714
2.814;-0.0634766
2.815;-0.0637817
2.816;-0.0640869
2.817;-0.0640869
2.818;-0.0640869
2.819;-0.0640869
2.82;-0.0634766
2.821;-0.0631714
2.822;-0.062561
2.823;-0.0619507
2.824;-0.0613403
2.825;-0.0604248
2.826;-0.0592041
2.827;-0.0582886
2.828;-0.0570679
2.829;-0.0561523
2.83;-0.0552368
2.831;-0.0546265
2.832;-0.0546265
2.833;-0.0549316
2.834;-0.055542
2.835;-0.0564575
2.836;-0.0576782
2.837;-0.0588989
2.838;-0.0598145
2.839;-0.0601196
2.84;-0.0604248
2.841;-0.0604248
2.842;-0.0604248
2.843;-0.0601196
2.844;-0.0598145
2.845;-0.0592041
2.846;-0.0588989
2.847;-0.0579834
2.848;-0.0570679
2.849;-0.0558472
2.85;-0.0543213
2.851;-0.0527954
2.852;-0.0512695
2.853;-0.0494385
2.854;-0.0476074
2.855;-0.0457764
2.856;-0.0439453
2.857;-0.0418091
2.858;-0.0396729
2.859;-0.0378418
2.86;-0.0360107
2.861;-0.0344849
2.862;-0.0332642
2.863;-0.0320435
2.864;-0.0308228
2.865;-0.0296021
2.866;-0.0286865
2.867;-0.0280762
2.868;-0.0274658
2.869;-0.0271606
2.87;-0.0268555
2.871;-0.0262451
2.872;-0.0259399
2.873;-0.0256348
2.874;-0.0253296
2.875;-0.0253296
2.876;-0.0253296
2.877;-0.0256348
2.878;-0.0256348
2.879;-0.0259399
2.88;-0.0262451
2.881;-0.0265503
2.882;-0.0268555
2.883;-0.0274658
2.884;-0.0280762
2.885;-0.0289917
2.886;-0.0299072
2.887;-0.0305176
2.888;-0.0311279
2.889;-0.0311279
2.89;-0.0308228
2.891;-0.0305176
2.892;-0.0296021
2.893;-0.0289917
2.894;-0.0280762
2.895;-0.0271606
2.896;-0.0265503
2.897;-0.0259399
2.898;-0.0256348
2.899;-0.0253296
2.9;-0.0244141
2.901;-0.0234985
2.902;-0.0222778
2.903;-0.0210571
2.904;-0.0198364
2.905;-0.0189209
2.906;-0.0183105
2.907;-0.0180054
2.908;-0.0180054
2.909;-0.0183105
2.91;-0.0186157
2.911;-0.0192261
2.912;-0.0198364
2.913;-0.0204468
2.914;-0.0210571
2.915;-0.0216675
2.916;-0.0222778
2.917;-0.022583
2.918;-0.0228882
2.919;-0.0234985
2.92;-0.0238037
2.921;-0.0241089
2.922;-0.0247192
2.923;-0.0256348
2.924;-0.0265503
2.925;-0.027771
2.926;-0.0289917
2.927;-0.0299072
2.928;-0.0308228
2.929;-0.0311279
2.93;-0.0317383
2.931;-0.0320435
2.932;-0.0326538
2.933;-0.0335693
2.934;-0.0344849
2.935;-0.0354004
2.936;-0.0363159
2.937;-0.0366211
2.938;-0.0369263
2.939;-0.0369263
2.94;-0.0369263
2.941;-0.0369263
2.942;-0.0369263
2.943;-0.0369263
2.944;-0.0366211
2.945;-0.0366211
2.946;-0.0363159
2.947;-0.0360107
2.948;-0.0357056
2.949;-0.03479
2.95;-0.0338745
2.951;-0.032959
2.952;-0.0323486
2.953;-0.0320435
2.954;-0.0317383
2.955;-0.0317383
2.956;-0.0320435
2.957;-0.0320435
2.958;-0.0320435
2.959;-0.0323486
2.96;-0.0323486
2.961;-0.0320435
2.962;-0.0320435
2.963;-0.0317383
2.964;-0.0317383
2.965;-0.0317383
2.966;-0.0317383
2.967;-0.0317383
2.968;-0.0320435
2.969;-0.0320435
2.97;-0.0320435
2.971;-0.0323486
2.972;-0.032959
2.973;-0.0335693
2.974;-0.03479
2.975;-0.0357056
2.976;-0.0366211
2.977;-0.0372314
2.978;-0.0375366
2.979;-0.0375366
2.98;-0.0378418
2.981;-0.038147
2.982;-0.0387573
2.983;-0.039978
2.984;-0.0415039
2.985;-0.0427246
2.986;-0.0442505
2.987;-0.045166
2.988;-0.0454712
2.989;-0.045166
2.99;-0.0445557
2.991;-0.0436401
2.992;-0.0427246
2.993;-0.0418091
2.994;-0.0408936
2.995;-0.039978
2.996;-0.0387573
2.997;-0.0378418
2.998;-0.0366211
2.999;-0.0357056
3;-0.03479
3.001;-0.0341797
3.002;-0.0332642
3.003;-0.0326538
3.004;-0.0323486
3.005;-0.0320435
3.006;-0.0320435
3.007;-0.0320435
3.008;-0.0323486
3.009;-0.032959
3.01;-0.0335693
3.011;-0.0341797
3.012;-0.0354004
3.013;-0.0366211
3.014;-0.038147
3.015;-0.0396729
3.016;-0.0408936
3.017;-0.0415039
3.018;-0.0418091
3.019;-0.0418091
3.02;-0.0418091
3.021;-0.0418091
3.022;-0.0418091
3.023;-0.0415039
3.024;-0.0411987
3.025;-0.0405884
3.026;-0.039978
3.027;-0.0393677
3.028;-0.0384521
3.029;-0.0372314
3.03;-0.0363159
3.031;-0.0354004
3.032;-0.0344849
3.033;-0.0335693
3.034;-0.0326538
3.035;-0.0320435
3.036;-0.0314331
3.037;-0.0311279
3.038;-0.0308228
3.039;-0.0311279
3.04;-0.0314331
3.041;-0.0320435
3.042;-0.0326538
3.043;-0.032959
3.044;-0.0335693
3.045;-0.0338745
3.046;-0.0341797
3.047;-0.0344849
3.048;-0.0350952
3.049;-0.0354004
3.05;-0.0360107
3.051;-0.0363159
3.052;-0.0366211
3.053;-0.0369263
3.054;-0.0372314
3.055;-0.0375366
3.056;-0.0378418
3.057;-0.0378418
3.058;-0.0378418
3.059;-0.0378418
3.06;-0.0375366
3.061;-0.0375366
3.062;-0.0372314
3.063;-0.0369263
3.064;-0.0366211
3.065;-0.0357056
3.066;-0.0350952
3.067;-0.0344849
3.068;-0.0338745
3.069;-0.0332642
3.07;-0.0326538
3.071;-0.0320435
3.072;-0.0314331
3.073;-0.0305176
3.074;-0.0296021
3.075;-0.0286865
3.076;-0.0274658
3.077;-0.0259399
3.078;-0.0244141
3.079;-0.0231934
3.08;-0.0216675
3.081;-0.0204468
3.082;-0.0192261
3.083;-0.0180054
3.084;-0.0161743
3.085;-0.0143433
3.086;-0.0125122
3.087;-0.0106812
3.088;-0.00854492
3.089;-0.00640869
3.09;-0.00396729
3.091;-0.0012207
3.092;0.0012207
3.093;0.00396729
3.094;0.00610352
3.095;0.00854492
3.096;0.0106812
3.097;0.0131226
3.098;0.0152588
3.099;0.0170898
3.1;0.0192261
3.101;0.0213623
3.102;0.0234985
3.103;0.0256348
3.104;0.0280762
3.105;0.0305176
3.106;0.0332642
3.107;0.0363159
3.108;0.0393677
3.109;0.0421143
3.11;0.0448608
3.111;0.0476074
3.112;0.0500488
3.113;0.0527954
3.114;0.0558472
3.115;0.0592041
3.116;0.0622559
3.117;0.0656128
3.118;0.0683594
3.119;0.071106
3.12;0.0738525
3.121;0.0762939
3.122;0.078125
3.123;0.0796509
3.124;0.0805664
3.125;0.0805664
3.126;0.0799561
3.127;0.0784302
3.128;0.0762939
3.129;0.0738525
3.13;0.071106
3.131;0.0683594
3.132;0.0656128
3.133;0.0628662
3.134;0.0598145
3.135;0.0561523
3.136;0.0524902
3.137;0.0488281
3.138;0.0448608
3.139;0.0415039
3.14;0.0378418
3.141;0.0341797
3.142;0.0305176
3.143;0.0268555
3.144;0.0234985
3.145;0.0201416
3.146;0.0170898
3.147;0.0143433
3.148;0.0112915
3.149;0.00823975
3.15;0.00488281
3.151;0.00183105
3.152;-0.00152588
3.153;-0.00457764
3.154;-0.00793457
3.155;-0.0115967
3.156;-0.015564
3.157;-0.0192261
3.158;-0.0231934
3.159;-0.0268555
3.16;-0.0308228
3.161;-0.0344849
3.162;-0.038147
3.163;-0.0415039
3.164;-0.0445557
3.165;-0.0476074
3.166;-0.0500488
3.167;-0.0524902
3.168;-0.0549316
3.169;-0.0567627
3.17;-0.0585938
3.171;-0.0604248
3.172;-0.0616455
3.173;-0.062561
3.174;-0.0628662
3.175;-0.0628662
3.176;-0.0622559
3.177;-0.0613403
3.178;-0.0610352
3.179;-0.06073
3.18;-0.06073
3.181;-0.06073
3.182;-0.06073
3.183;-0.0604248
3.184;-0.0598145
3.185;-0.0592041
3.186;-0.0582886
3.187;-0.0576782
3.188;-0.0570679
3.189;-0.0561523
3.19;-0.055542
3.191;-0.0546265
3.192;-0.0540161
3.193;-0.0537109
3.194;-0.0534058
3.195;-0.0537109
3.196;-0.0540161
3.197;-0.0543213
3.198;-0.0543213
3.199;-0.0543213
3.2;-0.0540161
3.201;-0.0537109
3.202;-0.0531006
3.203;-0.0531006
3.204;-0.0531006
3.205;-0.0534058
3.206;-0.0540161
3.207;-0.0546265
3.208;-0.055542
3.209;-0.0564575
3.21;-0.057373
3.211;-0.0582886
3.212;-0.0588989
3.213;-0.0592041
3.214;-0.0588989
3.215;-0.0579834
3.216;-0.0564575
3.217;-0.0543213
3.218;-0.0518799
3.219;-0.0482178
3.22;-0.0439453
3.221;-0.038147
3.222;-0.0305176
3.223;-0.0213623
3.224;-0.010376
3.225;0.00244141
3.226;0.0164795
3.227;0.0326538
3.228;0.0500488
3.229;0.0695801
3.23;0.0909424
3.231;0.113831
3.232;0.137939
3.233;0.162964
3.234;0.188904
3.235;0.215149
3.236;0.242004
3.237;0.268555
3.238;0.294189
3.239;0.318298
3.24;0.339966
3.241;0.358887
3.242;0.374146
3.243;0.385437
3.244;0.392761
3.245;0.395203
3.246;0.393066
3.247;0.385742
3.248;0.37323
3.249;0.35553
3.25;0.332947
3.251;0.306091
3.252;0.275269
3.253;0.241089
3.254;0.204468
3.255;0.16571
3.256;0.125732
3.257;0.0848389
3.258;0.0439453
3.259;0.00366211
3.26;-0.0350952
3.261;-0.0720215
3.262;-0.106201
3.263;-0.137634
3.264;-0.166016
3.265;-0.191345
3.266;-0.213013
3.267;-0.231323
3.268;-0.245972
3.269;-0.257263
3.27;-0.264893
3.271;-0.26947
3.272;-0.271301
3.273;-0.270386
3.274;-0.267029
3.275;-0.262146
3.276;-0.256042
3.277;-0.248413
3.278;-0.240173
3.279;-0.231628
3.28;-0.222473
3.281;-0.213623
3.282;-0.204468
3.283;-0.195007
3.284;-0.185242
3.285;-0.175171
3.286;-0.164795
3.287;-0.154419
3.288;-0.144348
3.289;-0.133972
3.29;-0.124207
3.291;-0.114746
3.292;-0.105591
3.293;-0.0970459
3.294;-0.0891113
3.295;-0.0820923
3.296;-0.0756836
3.297;-0.0704956
3.298;-0.0662231
3.299;-0.0631714
3.3;-0.06073
3.301;-0.0588989
3.302;-0.0576782
3.303;-0.0567627
3.304;-0.0558472
3.305;-0.0546265
3.306;-0.0537109
3.307;-0.0527954
3.308;-0.0518799
3.309;-0.0515747
3.31;-0.0515747
3.311;-0.0515747
3.312;-0.0512695
3.313;-0.0512695
3.314;-0.0506592
3.315;-0.0497437
3.316;-0.0488281
3.317;-0.0476074
3.318;-0.0466919
3.319;-0.0460815
3.32;-0.0454712
3.321;-0.045166
3.322;-0.045166
3.323;-0.045166
3.324;-0.045166
3.325;-0.0448608
3.326;-0.0448608
3.327;-0.0448608
3.328;-0.0448608
3.329;-0.045166
3.33;-0.045166
3.331;-0.0454712
3.332;-0.0457764
3.333;-0.0457764
3.334;-0.0454712
3.335;-0.0448608
3.336;-0.0439453
3.337;-0.0430298
3.338;-0.0421143
3.339;-0.0408936
3.34;-0.039978
3.341;-0.0387573
3.342;-0.0375366
3.343;-0.0363159
3.344;-0.03479
3.345;-0.0335693
3.346;-0.0323486
3.347;-0.0311279
3.348;-0.0299072
3.349;-0.0292969
3.35;-0.0286865
3.351;-0.0283813
3.352;-0.0283813
3.353;-0.0283813
3.354;-0.0286865
3.355;-0.0289917
3.356;-0.0289917
3.357;-0.0289917
3.358;-0.0289917
3.359;-0.0286865
3.36;-0.0283813
3.361;-0.0280762
3.362;-0.027771
3.363;-0.0271606
3.364;-0.0265503
3.365;-0.0259399
3.366;-0.0253296
3.367;-0.0250244
3.368;-0.0250244
3.369;-0.0256348
3.37;-0.0259399
3.371;-0.0265503
3.372;-0.0265503
3.373;-0.0265503
3.374;-0.0265503
3.375;-0.0262451
3.376;-0.0262451
3.377;-0.0259399
3.378;-0.0259399
3.379;-0.0262451
3.38;-0.0262451
3.381;-0.0262451
3.382;-0.0259399
3.383;-0.0256348
3.384;-0.0247192
3.385;-0.0241089
3.386;-0.0231934
3.387;-0.0219727
3.388;-0.020752
3.389;-0.0198364
3.39;-0.0186157
3.391;-0.0177002
3.392;-0.0164795
3.393;-0.015564
3.394;-0.0143433
3.395;-0.0131226
3.396;-0.012207
3.397;-0.0112915
3.398;-0.0106812
3.399;-0.010376
3.4;-0.00976562
3.401;-0.00915527
3.402;-0.00854492
3.403;-0.00793457
3.404;-0.00762939
3.405;-0.00732422
3.406;-0.00701904
3.407;-0.00671387
3.408;-0.00671387
3.409;-0.00610352
3.41;-0.00549316
3.411;-0.00488281
3.412;-0.00396729
3.413;-0.00305176
3.414;-0.00244141
3.415;-0.00152588
3.416;-0.0012207
3.417;-0.000610352
3.418;-0.000305176
3.419;-0.000305176
3.42;0
3.421;0
3.422;0
3.423;0.000305176
3.424;0.000610352
3.425;0.000915527
3.426;0.00152588
3.427;0.00183105
3.428;0.00244141
3.429;0.00305176
3.43;0.00396729
3.431;0.00488281
3.432;0.00610352
3.433;0.00762939
3.434;0.00915527
3.435;0.0109863
3.436;0.0128174
3.437;0.0146484
3.438;0.0164795
3.439;0.0183105
3.44;0.0201416
3.441;0.0219727
3.442;0.0241089
3.443;0.0265503
3.444;0.0289917
3.445;0.0317383
3.446;0.0341797
3.447;0.0363159
3.448;0.0384521
3.449;0.0405884
3.45;0.0424194
3.451;0.0442505
3.452;0.0466919
3.453;0.0494385
3.454;0.0521851
3.455;0.0549316
3.456;0.0579834
3.457;0.06073
3.458;0.0634766
3.459;0.0662231
3.46;0.0689697
3.461;0.0723267
3.462;0.0756836
3.463;0.0793457
3.464;0.0830078
3.465;0.0866699
3.466;0.090332
3.467;0.0939941
3.468;0.0973511
3.469;0.100708
3.47;0.104065
3.471;0.107727
3.472;0.110779
3.473;0.114136
3.474;0.117188
3.475;0.120239
3.476;0.123291
3.477;0.125732
3.478;0.127869
3.479;0.1297
3.48;0.131226
3.481;0.132446
3.482;0.133667
3.483;0.134583
3.484;0.135803
3.485;0.136719
3.486;0.137634
3.487;0.138245
3.488;0.13855
3.489;0.13855
3.49;0.138245
3.491;0.137939
3.492;0.137329
3.493;0.136414
3.494;0.135803
3.495;0.134888
3.496;0.134277
3.497;0.133362
3.498;0.132446
3.499;0.131531
3.5;0.130005
3.501;0.128479
3.502;0.126343
3.503;0.123901
3.504;0.12146
3.505;0.118713
3.506;0.115662
3.507;0.112915
3.508;0.109863
3.509;0.107117
3.51;0.104675
3.511;0.101929
3.512;0.0991821
3.513;0.0964355
3.514;0.0933838
3.515;0.090332
3.516;0.0872803
3.517;0.0842285
3.518;0.0814819
3.519;0.0787354
3.52;0.0756836
3.521;0.072937
3.522;0.0701904
3.523;0.0671387
3.524;0.0637817
3.525;0.0604248
3.526;0.0570679
3.527;0.0537109
3.528;0.050354
3.529;0.0473022
3.53;0.0442505
3.531;0.0408936
3.532;0.0378418
3.533;0.0344849
3.534;0.0311279
3.535;0.0280762
3.536;0.0250244
3.537;0.0219727
3.538;0.0189209
3.539;0.0161743
3.54;0.0137329
3.541;0.0119019
3.542;0.0100708
3.543;0.00823975
3.544;0.00671387
3.545;0.00488281
3.546;0.00335693
3.547;0.00213623
3.548;0.000915527
3.549;-0.000305176
3.55;-0.00152588
3.551;-0.00213623
3.552;-0.00274658
3.553;-0.00335693
3.554;-0.00427246
3.555;-0.00549316
3.556;-0.00732422
3.557;-0.00946045
3.558;-0.0119019
3.559;-0.0146484
3.56;-0.017395
3.561;-0.0198364
3.562;-0.0219727
3.563;-0.0234985
3.564;-0.0247192
3.565;-0.0256348
3.566;-0.0268555
3.567;-0.0280762
3.568;-0.0292969
3.569;-0.0305176
3.57;-0.0314331
3.571;-0.0323486
3.572;-0.0332642
3.573;-0.0335693
3.574;-0.0341797
3.575;-0.0344849
3.576;-0.0344849
3.577;-0.0344849
3.578;-0.0338745
3.579;-0.032959
3.58;-0.0320435
3.581;-0.0308228
3.582;-0.0296021
3.583;-0.0286865
3.584;-0.027771
3.585;-0.0268555
3.586;-0.0265503
3.587;-0.0262451
3.588;-0.0265503
3.589;-0.0265503
3.59;-0.0271606
3.591;-0.0274658
3.592;-0.027771
3.593;-0.0283813
3.594;-0.0286865
3.595;-0.0283813
3.596;-0.0280762
3.597;-0.0268555
3.598;-0.0256348
3.599;-0.0244141
3.6;-0.0231934
3.601;-0.0219727
3.602;-0.0210571
3.603;-0.0201416
3.604;-0.0192261
3.605;-0.0180054
3.606;-0.0167847
3.607;-0.015564
3.608;-0.0140381
3.609;-0.012207
3.61;-0.0106812
3.611;-0.00915527
3.612;-0.00793457
3.613;-0.00701904
3.614;-0.00671387
3.615;-0.00671387
3.616;-0.00671387
3.617;-0.00701904
3.618;-0.00732422
3.619;-0.00762939
3.62;-0.00823975
3.621;-0.00915527
3.622;-0.0100708
3.623;-0.0109863
3.624;-0.0115967
3.625;-0.0119019
3.626;-0.0119019
3.627;-0.012207
3.628;-0.0125122
3.629;-0.0125122
3.63;-0.0125122
3.631;-0.012207
3.632;-0.0115967
3.633;-0.0106812
3.634;-0.00946045
3.635;-0.00793457
3.636;-0.00640869
3.637;-0.00518799
3.638;-0.00366211
3.639;-0.00244141
3.64;-0.00152588
3.641;-0.000915527
3.642;0
3.643;0.000610352
3.644;0.0012207
3.645;0.00183105
3.646;0.00213623
3.647;0.00213623
3.648;0.00183105
3.649;0.00152588
3.65;0.000610352
3.651;0
3.652;-0.0012207
3.653;-0.00213623
3.654;-0.00335693
3.655;-0.00457764
3.656;-0.00518799
3.657;-0.00549316
3.658;-0.00549316
3.659;-0.00518799
3.66;-0.00488281
3.661;-0.00427246
3.662;-0.00396729
3.663;-0.00366211
3.664;-0.00335693
3.665;-0.00335693
3.666;-0.00335693
3.667;-0.00366211
3.668;-0.00366211
3.669;-0.00335693
3.67;-0.00305176
3.671;-0.00305176
3.672;-0.00274658
3.673;-0.00244141
3.674;-0.00213623
3.675;-0.00213623
3.676;-0.00244141
3.677;-0.00274658
3.678;-0.00305176
3.679;-0.00366211
3.68;-0.00396729
3.681;-0.00427246
3.682;-0.00427246
3.683;-0.00427246
3.684;-0.00427246
3.685;-0.00427246
3.686;-0.00457764
3.687;-0.00488281
3.688;-0.00579834
3.689;-0.00640869
3.69;-0.00701904
3.691;-0.00762939
3.692;-0.00823975
3.693;-0.00915527
3.694;-0.00976562
3.695;-0.010376
3.696;-0.0109863
3.697;-0.0119019
3.698;-0.0125122
3.699;-0.0134277
3.7;-0.0143433
3.701;-0.0152588
3.702;-0.0161743
3.703;-0.0170898
3.704;-0.017395
3.705;-0.0177002
3.706;-0.0177002
3.707;-0.0177002
3.708;-0.0170898
3.709;-0.0161743
3.71;-0.0152588
3.711;-0.0140381
3.712;-0.0131226
3.713;-0.012207
3.714;-0.0112915
3.715;-0.0106812
3.716;-0.0100708
3.717;-0.00946045
3.718;-0.0088501
3.719;-0.00854492
3.72;-0.00823975
3.721;-0.00823975
3.722;-0.00823975
3.723;-0.00823975
3.724;-0.00823975
3.725;-0.00823975
3.726;-0.00823975
3.727;-0.00854492
3.728;-0.0088501
3.729;-0.00915527
3.73;-0.00976562
3.731;-0.0100708
3.732;-0.0106812
3.733;-0.0112915
3.734;-0.0119019
3.735;-0.0125122
3.736;-0.0128174
3.737;-0.0131226
3.738;-0.0131226
3.739;-0.0131226
3.74;-0.0131226
3.741;-0.0125122
3.742;-0.012207
3.743;-0.0115967
3.744;-0.0109863
3.745;-0.0109863
3.746;-0.0106812
3.747;-0.010376
3.748;-0.0100708
3.749;-0.00976562
3.75;-0.00976562
3.751;-0.00976562
3.752;-0.010376
3.753;-0.0112915
3.754;-0.012207
3.755;-0.0131226
3.756;-0.0137329
3.757;-0.0140381
3.758;-0.0143433
3.759;-0.0146484
3.76;-0.0152588
3.761;-0.0158691
3.762;-0.0164795
3.763;-0.0170898
3.764;-0.0180054
3.765;-0.0186157
3.766;-0.0192261
3.767;-0.0192261
3.768;-0.0192261
3.769;-0.0192261
3.77;-0.0195312
3.771;-0.0198364
3.772;-0.0201416
3.773;-0.0201416
3.774;-0.0201416
3.775;-0.0195312
3.776;-0.0183105
3.777;-0.0167847
3.778;-0.015564
3.779;-0.0140381
3.78;-0.0131226
3.781;-0.012207
3.782;-0.0115967
3.783;-0.0109863
3.784;-0.010376
3.785;-0.00976562
3.786;-0.0088501
3.787;-0.00793457
3.788;-0.00701904
3.789;-0.00610352
3.79;-0.00518799
3.791;-0.00427246
3.792;-0.00366211
3.793;-0.00335693
3.794;-0.00305176
3.795;-0.00305176
3.796;-0.00305176
3.797;-0.00274658
3.798;-0.00244141
3.799;-0.00244141
3.8;-0.00213623
3.801;-0.00183105
3.802;-0.00152588
3.803;-0.00152588
3.804;-0.0012207
3.805;-0.0012207
3.806;-0.000610352
3.807;0
3.808;0.0012207
3.809;0.00274658
3.81;0.00488281
3.811;0.00701904
3.812;0.00946045
3.813;0.0119019
3.814;0.0140381
3.815;0.0158691
3.816;0.0177002
3.817;0.0192261
3.818;0.020752
3.819;0.0222778
3.82;0.0241089
3.821;0.0262451
3.822;0.0286865
3.823;0.0314331
3.824;0.0341797
3.825;0.0375366
3.826;0.0405884
3.827;0.0436401
3.828;0.0466919
3.829;0.0497437
3.83;0.0531006
3.831;0.0561523
3.832;0.0595093
3.833;0.062561
3.834;0.065918
3.835;0.0689697
3.836;0.0723267
3.837;0.0756836
3.838;0.0787354
3.839;0.0814819
3.84;0.0836182
3.841;0.0854492
3.842;0.0863647
3.843;0.0869751
3.844;0.0875854
3.845;0.0878906
3.846;0.0881958
3.847;0.088501
3.848;0.088501
3.849;0.0881958
3.85;0.0878906
3.851;0.0869751
3.852;0.0857544
3.853;0.0842285
3.854;0.0823975
3.855;0.0805664
3.856;0.0787354
3.857;0.0762939
3.858;0.0738525
3.859;0.071106
3.86;0.0683594
3.861;0.0656128
3.862;0.062561
3.863;0.0595093
3.864;0.0561523
3.865;0.0524902
3.866;0.0488281
3.867;0.0442505
3.868;0.0396729
3.869;0.0350952
3.87;0.0302124
3.871;0.0253296
3.872;0.0204468
3.873;0.015564
3.874;0.0106812
3.875;0.00579834
3.876;0.0012207
3.877;-0.00305176
3.878;-0.00732422
3.879;-0.0109863
3.88;-0.0143433
3.881;-0.017395
3.882;-0.0204468
3.883;-0.0228882
3.884;-0.0250244
3.885;-0.0268555
3.886;-0.0283813
3.887;-0.0299072
3.888;-0.0314331
3.889;-0.0326538
3.89;-0.0338745
3.891;-0.0350952
3.892;-0.0360107
3.893;-0.0366211
3.894;-0.0369263
3.895;-0.0372314
3.896;-0.0372314
3.897;-0.0372314
3.898;-0.0372314
3.899;-0.0378418
3.9;-0.038147
3.901;-0.0387573
3.902;-0.0393677
3.903;-0.039978
3.904;-0.0408936
3.905;-0.0415039
3.906;-0.0418091
3.907;-0.0421143
3.908;-0.0421143
3.909;-0.0418091
3.91;-0.0411987
3.911;-0.0402832
3.912;-0.0396729
3.913;-0.0387573
3.914;-0.0375366
3.915;-0.0366211
3.916;-0.0354004
3.917;-0.0338745
3.918;-0.0326538
3.919;-0.0314331
3.92;-0.0302124
3.921;-0.0289917
3.922;-0.0283813
3.923;-0.027771
3.924;-0.027771
3.925;-0.0274658
3.926;-0.027771
3.927;-0.0283813
3.928;-0.0296021
3.929;-0.0311279
3.93;-0.0332642
3.931;-0.0354004
3.932;-0.0378418
3.933;-0.0402832
3.934;-0.0424194
3.935;-0.0445557
3.936;-0.0463867
3.937;-0.0473022
3.938;-0.0473022
3.939;-0.0466919
3.94;-0.045166
3.941;-0.0427246
3.942;-0.0393677
3.943;-0.03479
3.944;-0.0286865
3.945;-0.0210571
3.946;-0.0115967
3.947;-0.000610352
3.948;0.012207
3.949;0.0265503
3.95;0.0424194
3.951;0.0595093
3.952;0.078125
3.953;0.0982666
3.954;0.119629
3.955;0.141907
3.956;0.165405
3.957;0.189514
3.958;0.213928
3.959;0.238342
3.96;0.261536
3.961;0.283203
3.962;0.302429
3.963;0.318298
3.964;0.330505
3.965;0.338745
3.966;0.343018
3.967;0.343933
3.968;0.340271
3.969;0.332642
3.97;0.320129
3.971;0.303345
3.972;0.281677
3.973;0.255737
3.974;0.226135
3.975;0.193176
3.976;0.157776
3.977;0.120239
3.978;0.0814819
3.979;0.0424194
3.98;0.00335693
3.981;-0.03479
3.982;-0.071106
3.983;-0.10498
3.984;-0.136414
3.985;-0.164795
3.986;-0.189819
3.987;-0.211487
3.988;-0.229797
3.989;-0.244446
3.99;-0.255737
3.991;-0.263367
3.992;-0.267944
3.993;-0.269775
3.994;-0.26947
3.995;-0.266724
3.996;-0.262756
3.997;-0.257263
3.998;-0.250549
3.999;-0.24292
4;-0.23468
4.001;-0.22583
4.002;-0.21698
4.003;-0.20752
4.004;-0.198364
4.005;-0.189209
4.006;-0.179749
4.007;-0.170593
4.008;-0.161133
4.009;-0.151672
4.01;-0.141907
4.011;-0.132141
4.012;-0.122681
4.013;-0.113525
4.014;-0.104675
4.015;-0.0961304
4.016;-0.0878906
4.017;-0.0805664
4.018;-0.0738525
4.019;-0.067749
4.02;-0.062561
4.021;-0.0582886
4.022;-0.0543213
4.023;-0.0512695
4.024;-0.0488281
4.025;-0.0466919
4.026;-0.0454712
4.027;-0.0445557
4.028;-0.0445557
4.029;-0.0448608
4.03;-0.0454712
4.031;-0.0460815
4.032;-0.0469971
4.033;-0.0473022
4.034;-0.0476074
4.035;-0.0473022
4.036;-0.0469971
4.037;-0.0463867
4.038;-0.0454712
4.039;-0.0445557
4.04;-0.0436401
4.041;-0.0424194
4.042;-0.0415039
4.043;-0.0405884
4.044;-0.0396729
4.045;-0.0390625
4.046;-0.0384521
4.047;-0.0378418
4.048;-0.0369263
4.049;-0.0360107
4.05;-0.0354004
4.051;-0.03479
4.052;-0.0344849
4.053;-0.03479
4.054;-0.0357056
4.055;-0.0363159
4.056;-0.0369263
4.057;-0.0372314
4.058;-0.0372314
4.059;-0.0369263
4.06;-0.0366211
4.061;-0.0363159
4.062;-0.0363159
4.063;-0.0360107
4.064;-0.0357056
4.065;-0.0350952
4.066;-0.03479
4.067;-0.0338745
4.068;-0.0332642
4.069;-0.0323486
4.07;-0.0314331
4.071;-0.0302124
4.072;-0.0289917
4.073;-0.0280762
4.074;-0.0271606
4.075;-0.0262451
4.076;-0.0253296
4.077;-0.0241089
4.078;-0.0228882
4.079;-0.0216675
4.08;-0.020752
4.081;-0.0195312
4.082;-0.0186157
4.083;-0.0180054
4.084;-0.0170898
4.085;-0.0164795
4.086;-0.015564
4.087;-0.0149536
4.088;-0.0143433
4.089;-0.0137329
4.09;-0.0128174
4.091;-0.012207
4.092;-0.0119019
4.093;-0.0115967
4.094;-0.0112915
4.095;-0.0112915
4.096;-0.0112915
4.097;-0.0115967
4.098;-0.0115967
4.099;-0.0115967
4.1;-0.0119019
4.101;-0.0125122
4.102;-0.0131226
4.103;-0.0140381
4.104;-0.0149536
4.105;-0.015564
4.106;-0.0158691
4.107;-0.0158691
4.108;-0.0152588
4.109;-0.0146484
4.11;-0.0137329
4.111;-0.0125122
4.112;-0.0115967
4.113;-0.0106812
4.114;-0.0100708
4.115;-0.00946045
4.116;-0.00854492
4.117;-0.00793457
4.118;-0.00701904
4.119;-0.00640869
4.12;-0.00549316
4.121;-0.00488281
4.122;-0.00427246
4.123;-0.00366211
4.124;-0.00305176
4.125;-0.00274658
4.126;-0.00274658
4.127;-0.00305176
4.128;-0.00335693
4.129;-0.00396729
4.13;-0.00427246
4.131;-0.00488281
4.132;-0.00518799
4.133;-0.00549316
4.134;-0.00549316
4.135;-0.00549316
4.136;-0.00518799
4.137;-0.00488281
4.138;-0.00488281
4.139;-0.00488281
4.14;-0.00488281
4.141;-0.00488281
4.142;-0.00488281
4.143;-0.00457764
4.144;-0.00396729
4.145;-0.00305176
4.146;-0.00213623
4.147;-0.000915527
4.148;0.000610352
4.149;0.00244141
4.15;0.00457764
4.151;0.00671387
4.152;0.00915527
4.153;0.0112915
4.154;0.0137329
4.155;0.0158691
4.156;0.0186157
4.157;0.0213623
4.158;0.0241089
4.159;0.0271606
4.16;0.0302124
4.161;0.0332642
4.162;0.0366211
4.163;0.039978
4.164;0.043335
4.165;0.0469971
4.166;0.0500488
4.167;0.0527954
4.168;0.0546265
4.169;0.0561523
4.17;0.0570679
4.171;0.0576782
4.172;0.0582886
4.173;0.0585938
4.174;0.0595093
4.175;0.06073
4.176;0.0622559
4.177;0.0640869
4.178;0.065918
4.179;0.067749
4.18;0.0692749
4.181;0.0708008
4.182;0.072937
4.183;0.0750732
4.184;0.0778198
4.185;0.0808716
4.186;0.0836182
4.187;0.0866699
4.188;0.0894165
4.189;0.0918579
4.19;0.0946045
4.191;0.0976562
4.192;0.101013
4.193;0.104675
4.194;0.108337
4.195;0.112
4.196;0.115051
4.197;0.117798
4.198;0.120239
4.199;0.122681
4.2;0.124512
4.201;0.126343
4.202;0.127258
4.203;0.128174
4.204;0.128174
4.205;0.127869
4.206;0.127563
4.207;0.126953
4.208;0.126648
4.209;0.126343
4.21;0.126343
4.211;0.126343
4.212;0.126038
4.213;0.125732
4.214;0.125122
4.215;0.124207
4.216;0.122986
4.217;0.12146
4.218;0.119934
4.219;0.118713
4.22;0.117493
4.221;0.116577
4.222;0.115662
4.223;0.114746
4.224;0.114136
4.225;0.112915
4.226;0.111694
4.227;0.110474
4.228;0.109253
4.229;0.107727
4.23;0.106201
4.231;0.104675
4.232;0.102539
4.233;0.100403
4.234;0.0979614
4.235;0.09552
4.236;0.0930786
4.237;0.090332
4.238;0.0875854
4.239;0.0848389
4.24;0.0817871
4.241;0.0787354
4.242;0.0756836
4.243;0.072937
4.244;0.0701904
4.245;0.0671387
4.246;0.0643921
4.247;0.0613403
4.248;0.0582886
4.249;0.0552368
4.25;0.0518799
4.251;0.0485229
4.252;0.045166
4.253;0.0411987
4.254;0.0372314
4.255;0.0338745
4.256;0.0305176
4.257;0.027771
4.258;0.0256348
4.259;0.0238037
4.26;0.0222778
4.261;0.020752
4.262;0.0192261
4.263;0.017395
4.264;0.0158691
4.265;0.0143433
4.266;0.0128174
4.267;0.0115967
4.268;0.010376
4.269;0.00946045
4.27;0.00854492
4.271;0.00762939
4.272;0.00671387
4.273;0.00549316
4.274;0.00427246
4.275;0.00274658
4.276;0.0012207
4.277;-0.000305176
4.278;-0.00183105
4.279;-0.00305176
4.28;-0.00457764
4.281;-0.00579834
4.282;-0.00732422
4.283;-0.0088501
4.284;-0.010376
4.285;-0.0119019
4.286;-0.0131226
4.287;-0.0140381
4.288;-0.0149536
4.289;-0.015564
4.29;-0.0161743
4.291;-0.0164795
4.292;-0.0161743
4.293;-0.0158691
4.294;-0.0152588
4.295;-0.0143433
4.296;-0.0137329
4.297;-0.0131226
4.298;-0.0125122
4.299;-0.0125122
4.3;-0.012207
4.301;-0.012207
4.302;-0.012207
4.303;-0.0125122
4.304;-0.0128174
4.305;-0.0131226
4.306;-0.0137329
4.307;-0.0140381
4.308;-0.0146484
4.309;-0.0146484
4.31;-0.0143433
4.311;-0.0140381
4.312;-0.0137329
4.313;-0.0134277
4.314;-0.0128174
4.315;-0.0125122
4.316;-0.012207
4.317;-0.0115967
4.318;-0.0115967
4.319;-0.0109863
4.32;-0.010376
4.321;-0.00946045
4.322;-0.00854492
4.323;-0.00732422
4.324;-0.00610352
4.325;-0.00457764
4.326;-0.00274658
4.327;-0.0012207
4.328;0.000610352
4.329;0.00244141
4.33;0.00396729
4.331;0.00549316
4.332;0.00640869
4.333;0.00732422
4.334;0.00823975
4.335;0.0088501
4.336;0.0100708
4.337;0.0112915
4.338;0.0125122
4.339;0.0140381
4.34;0.015564
4.341;0.0167847
4.342;0.0180054
4.343;0.0189209
4.344;0.0195312
4.345;0.0201416
4.346;0.020752
4.347;0.0210571
4.348;0.0213623
4.349;0.0216675
4.35;0.0219727
4.351;0.022583
4.352;0.0231934
4.353;0.0238037
4.354;0.0241089
4.355;0.0247192
4.356;0.0250244
4.357;0.0256348
4.358;0.0259399
4.359;0.0262451
4.36;0.0265503
4.361;0.0268555
4.362;0.0271606
4.363;0.027771
4.364;0.0286865
4.365;0.0292969
4.366;0.0299072
4.367;0.0305176
4.368;0.0311279
4.369;0.0317383
4.37;0.0326538
4.371;0.0332642
4.372;0.0335693
4.373;0.0338745
4.374;0.0338745
4.375;0.0338745
4.376;0.0338745
4.377;0.0341797
4.378;0.0341797
4.379;0.0344849
4.38;0.0344849
4.381;0.0341797
4.382;0.0341797
4.383;0.0338745
4.384;0.0338745
4.385;0.0341797
4.386;0.0344849
4.387;0.0350952
4.388;0.0357056
4.389;0.0366211
4.39;0.0372314
4.391;0.0375366
4.392;0.0375366
4.393;0.0375366
4.394;0.0375366
4.395;0.0375366
4.396;0.0378418
4.397;0.0387573
4.398;0.0396729
4.399;0.0408936
4.4;0.0418091
4.401;0.0430298
4.402;0.0442505
4.403;0.0454712
4.404;0.0463867
4.405;0.0473022
4.406;0.0476074
4.407;0.0476074
4.408;0.0479126
4.409;0.0482178
4.41;0.0485229
4.411;0.0488281
4.412;0.0491333
4.413;0.0494385
4.414;0.0491333
4.415;0.0488281
4.416;0.0479126
4.417;0.0466919
4.418;0.045166
4.419;0.0436401
4.42;0.0421143
4.421;0.0405884
4.422;0.0393677
4.423;0.0384521
4.424;0.0372314
4.425;0.0363159
4.426;0.03479
4.427;0.0335693
4.428;0.0323486
4.429;0.0311279
4.43;0.0302124
4.431;0.0292969
4.432;0.0286865
4.433;0.0280762
4.434;0.0274658
4.435;0.0271606
4.436;0.0271606
4.437;0.0271606
4.438;0.0271606
4.439;0.0271606
4.44;0.0271606
4.441;0.0271606
4.442;0.0271606
4.443;0.0271606
4.444;0.0274658
4.445;0.027771
4.446;0.0274658
4.447;0.0271606
4.448;0.0268555
4.449;0.0271606
4.45;0.0274658
4.451;0.0283813
4.452;0.0296021
4.453;0.0308228
4.454;0.0320435
4.455;0.032959
4.456;0.0338745
4.457;0.0344849
4.458;0.0350952
4.459;0.0354004
4.46;0.0357056
4.461;0.0360107
4.462;0.0363159
4.463;0.0366211
4.464;0.0369263
4.465;0.0372314
4.466;0.0375366
4.467;0.0375366
4.468;0.0372314
4.469;0.0372314
4.47;0.0366211
4.471;0.0360107
4.472;0.0354004
4.473;0.0344849
4.474;0.0341797
4.475;0.0335693
4.476;0.0332642
4.477;0.032959
4.478;0.0323486
4.479;0.0317383
4.48;0.0311279
4.481;0.0308228
4.482;0.0305176
4.483;0.0305176
4.484;0.0305176
4.485;0.0305176
4.486;0.0302124
4.487;0.0299072
4.488;0.0296021
4.489;0.0299072
4.49;0.0305176
4.491;0.0311279
4.492;0.0323486
4.493;0.0335693
4.494;0.0350952
4.495;0.0369263
4.496;0.0390625
4.497;0.0408936
4.498;0.0430298
4.499;0.045166
4.5;0.0473022
4.501;0.0497437
4.502;0.0518799
4.503;0.0540161
4.504;0.0558472
4.505;0.0579834
4.506;0.0598145
4.507;0.0619507
4.508;0.0640869
4.509;0.065918
4.51;0.0683594
4.511;0.0701904
4.512;0.0723267
4.513;0.0741577
4.514;0.0759888
4.515;0.0778198
4.516;0.0796509
4.517;0.0820923
4.518;0.0848389
4.519;0.0875854
4.52;0.0909424
4.521;0.0939941
4.522;0.0970459
4.523;0.100403
4.524;0.10376
4.525;0.107117
4.526;0.110168
4.527;0.113525
4.528;0.116272
4.529;0.119324
4.53;0.121765
4.531;0.124512
4.532;0.126953
4.533;0.129089
4.534;0.13092
4.535;0.132446
4.536;0.133362
4.537;0.133667
4.538;0.133667
4.539;0.133057
4.54;0.132141
4.541;0.131226
4.542;0.130005
4.543;0.128479
4.544;0.126648
4.545;0.124817
4.546;0.122375
4.547;0.119934
4.548;0.116882
4.549;0.113831
4.55;0.110779
4.551;0.108032
4.552;0.104675
4.553;0.101624
4.554;0.0985718
4.555;0.0952148
4.556;0.0921631
4.557;0.0888062
4.558;0.085144
4.559;0.0811768
4.56;0.0769043
4.561;0.0726318
4.562;0.0680542
4.563;0.0640869
4.564;0.0601196
4.565;0.0567627
4.566;0.0537109
4.567;0.0512695
4.568;0.0485229
4.569;0.0457764
4.57;0.0430298
4.571;0.039978
4.572;0.0366211
4.573;0.0335693
4.574;0.0305176
4.575;0.0280762
4.576;0.0256348
4.577;0.0238037
4.578;0.0219727
4.579;0.0201416
4.58;0.0180054
4.581;0.015564
4.582;0.0131226
4.583;0.010376
4.584;0.00823975
4.585;0.00640869
4.586;0.00488281
4.587;0.00366211
4.588;0.00244141
4.589;0.0012207
4.59;-0.000305176
4.591;-0.00152588
4.592;-0.00274658
4.593;-0.00366211
4.594;-0.00396729
4.595;-0.00427246
4.596;-0.00396729
4.597;-0.00396729
4.598;-0.00335693
4.599;-0.00305176
4.6;-0.00244141
4.601;-0.00152588
4.602;-0.000610352
4.603;0.000305176
4.604;0.0012207
4.605;0.00213623
4.606;0.00335693
4.607;0.00427246
4.608;0.00518799
4.609;0.00610352
4.61;0.00640869
4.611;0.00671387
4.612;0.00671387
4.613;0.00640869
4.614;0.00640869
4.615;0.00610352
4.616;0.00579834
4.617;0.00549316
4.618;0.00457764
4.619;0.00366211
4.62;0.00213623
4.621;0.000610352
4.622;-0.0012207
4.623;-0.00335693
4.624;-0.00549316
4.625;-0.00762939
4.626;-0.00976562
4.627;-0.0115967
4.628;-0.0128174
4.629;-0.0131226
4.63;-0.0128174
4.631;-0.0115967
4.632;-0.0100708
4.633;-0.00793457
4.634;-0.00518799
4.635;-0.00152588
4.636;0.00366211
4.637;0.010376
4.638;0.0189209
4.639;0.0292969
4.64;0.0411987
4.641;0.0546265
4.642;0.0695801
4.643;0.0860596
4.644;0.103455
4.645;0.122375
4.646;0.141907
4.647;0.162659
4.648;0.184021
4.649;0.205688
4.65;0.227966
4.651;0.250244
4.652;0.271606
4.653;0.291748
4.654;0.309753
4.655;0.324707
4.656;0.336304
4.657;0.344238
4.658;0.3479
4.659;0.347595
4.66;0.343018
4.661;0.334473
4.662;0.321655
4.663;0.304565
4.664;0.283203
4.665;0.257568
4.666;0.227966
4.667;0.195618
4.668;0.160522
4.669;0.123901
4.67;0.0863647
4.671;0.0485229
4.672;0.0109863
4.673;-0.0256348
4.674;-0.0604248
4.675;-0.0930786
4.676;-0.122986
4.677;-0.150146
4.678;-0.17395
4.679;-0.194092
4.68;-0.210876
4.681;-0.223999
4.682;-0.233765
4.683;-0.240479
4.684;-0.244446
4.685;-0.245667
4.686;-0.244446
4.687;-0.241394
4.688;-0.236511
4.689;-0.230408
4.69;-0.223389
4.691;-0.215454
4.692;-0.207214
4.693;-0.198975
4.694;-0.19043
4.695;-0.181885
4.696;-0.173645
4.697;-0.1651
4.698;-0.156555
4.699;-0.148315
4.7;-0.139771
4.701;-0.131531
4.702;-0.122986
4.703;-0.114136
4.704;-0.105591
4.705;-0.0967407
4.706;-0.0881958
4.707;-0.0799561
4.708;-0.0720215
4.709;-0.0646973
4.71;-0.0579834
4.711;-0.0518799
4.712;-0.0463867
4.713;-0.0418091
4.714;-0.0378418
4.715;-0.0344849
4.716;-0.0317383
4.717;-0.0299072
4.718;-0.0286865
4.719;-0.0280762
4.72;-0.027771
4.721;-0.027771
4.722;-0.027771
4.723;-0.0274658
4.724;-0.0268555
4.725;-0.0262451
4.726;-0.0253296
4.727;-0.0247192
4.728;-0.0241089
4.729;-0.0231934
4.73;-0.022583
4.731;-0.0216675
4.732;-0.020752
4.733;-0.0192261
4.734;-0.0180054
4.735;-0.0164795
4.736;-0.0152588
4.737;-0.0143433
4.738;-0.0137329
4.739;-0.0128174
4.74;-0.0119019
4.741;-0.0106812
4.742;-0.00915527
4.743;-0.00732422
4.744;-0.00579834
4.745;-0.00427246
4.746;-0.00274658
4.747;-0.00183105
4.748;-0.000915527
4.749;-0.000305176
4.75;0.000305176
4.751;0.000915527
4.752;0.00152588
4.753;0.00213623
4.754;0.00244141
4.755;0.00274658
4.756;0.00274658
4.757;0.00244141
4.758;0.00244141
4.759;0.00213623
4.76;0.00213623
4.761;0.00244141
4.762;0.00244141
4.763;0.00244141
4.764;0.00213623
4.765;0.0012207
4.766;0.000610352
4.767;0
4.768;0
4.769;0.000305176
4.77;0.000915527
4.771;0.00152588
4.772;0.00244141
4.773;0.00366211
4.774;0.00457764
4.775;0.00610352
4.776;0.00732422
4.777;0.00915527
4.778;0.0106812
4.779;0.0119019
4.78;0.0128174
4.781;0.0134277
4.782;0.0131226
4.783;0.0125122
4.784;0.0119019
4.785;0.0109863
4.786;0.010376
4.787;0.00976562
4.788;0.00946045
4.789;0.00915527
4.79;0.0088501
4.791;0.00854492
4.792;0.00793457
4.793;0.00762939
4.794;0.00732422
4.795;0.00671387
4.796;0.00640869
4.797;0.00640869
4.798;0.00671387
4.799;0.00701904
4.8;0.00732422
4.801;0.00823975
4.802;0.00915527
4.803;0.0100708
4.804;0.0112915
4.805;0.012207
4.806;0.0128174
4.807;0.0131226
4.808;0.0131226
4.809;0.0134277
4.81;0.0140381
4.811;0.0149536
4.812;0.015564
4.813;0.0164795
4.814;0.0170898
4.815;0.0177002
4.816;0.0183105
4.817;0.0186157
4.818;0.0192261
4.819;0.0201416
4.82;0.0210571
4.821;0.0222778
4.822;0.0234985
4.823;0.0250244
4.824;0.0268555
4.825;0.0283813
4.826;0.0296021
4.827;0.0311279
4.828;0.0326538
4.829;0.0338745
4.83;0.0354004
4.831;0.0369263
4.832;0.038147
4.833;0.0396729
4.834;0.0408936
4.835;0.0421143
4.836;0.0430298
4.837;0.0442505
4.838;0.045166
4.839;0.0460815
4.84;0.0476074
4.841;0.0488281
4.842;0.0506592
4.843;0.0521851
4.844;0.0540161
4.845;0.0552368
4.846;0.0567627
4.847;0.0579834
4.848;0.0588989
4.849;0.0601196
4.85;0.0616455
4.851;0.0628662
4.852;0.0646973
4.853;0.0665283
4.854;0.0683594
4.855;0.0704956
4.856;0.0723267
4.857;0.0744629
4.858;0.0762939
4.859;0.078125
4.86;0.0799561
4.861;0.0820923
4.862;0.0845337
4.863;0.0872803
4.864;0.090332
4.865;0.0933838
4.866;0.0967407
4.867;0.0997925
4.868;0.103149
4.869;0.106201
4.87;0.108948
4.871;0.111694
4.872;0.114136
4.873;0.116577
4.874;0.118713
4.875;0.12085
4.876;0.123291
4.877;0.125732
4.878;0.128479
4.879;0.131531
4.88;0.134277
4.881;0.137024
4.882;0.139465
4.883;0.141602
4.884;0.143738
4.885;0.145874
4.886;0.14801
4.887;0.150452
4.888;0.152893
4.889;0.155334
4.89;0.157471
4.891;0.159912
4.892;0.161743
4.893;0.163269
4.894;0.164795
4.895;0.166321
4.896;0.167236
4.897;0.168152
4.898;0.168762
4.899;0.168762
4.9;0.168152
4.901;0.167236
4.902;0.166016
4.903;0.16449
4.904;0.162964
4.905;0.160828
4.906;0.158691
4.907;0.155945
4.908;0.153503
4.909;0.151367
4.91;0.149841
4.911;0.148926
4.912;0.14801
4.913;0.1474
4.914;0.147095
4.915;0.146179
4.916;0.145264
4.917;0.144348
4.918;0.143127
4.919;0.141907
4.92;0.140991
4.921;0.140076
4.922;0.139465
4.923;0.13916
4.924;0.13855
4.925;0.137634
4.926;0.136719
4.927;0.135193
4.928;0.133362
4.929;0.131226
4.93;0.128784
4.931;0.126038
4.932;0.123291
4.933;0.120544
4.934;0.118103
4.935;0.115662
4.936;0.11322
4.937;0.111084
4.938;0.108643
4.939;0.106506
4.94;0.104065
4.941;0.101318
4.942;0.0985718
4.943;0.0958252
4.944;0.0930786
4.945;0.0900269
4.946;0.0869751
4.947;0.0839233
4.948;0.0808716
4.949;0.0778198
4.95;0.0744629
4.951;0.071106
4.952;0.0680542
4.953;0.0650024
4.954;0.062561
4.955;0.0598145
4.956;0.0570679
4.957;0.0543213
4.958;0.0515747
4.959;0.0485229
4.96;0.0457764
4.961;0.043335
4.962;0.0411987
4.963;0.0393677
4.964;0.0378418
4.965;0.0363159
4.966;0.0350952
4.967;0.0338745
4.968;0.032959
4.969;0.0320435
4.97;0.0311279
4.971;0.0305176
4.972;0.0296021
4.973;0.0286865
4.974;0.027771
4.975;0.0265503
4.976;0.0253296
4.977;0.0241089
4.978;0.0231934
4.979;0.0222778
4.98;0.0216675
4.981;0.0213623
4.982;0.0210571
4.983;0.0210571
4.984;0.020752
4.985;0.0204468
4.986;0.0198364
4.987;0.0195312
4.988;0.0189209
4.989;0.0189209
4.99;0.0192261
4.991;0.0198364
4.992;0.0204468
4.993;0.0210571
4.994;0.0216675
4.995;0.0222778
4.996;0.0228882
4.997;0.0231934
4.998;0.0234985
4.999;0.0238037
5;0.0238037
5.001;0.0238037
5.002;0.0238037
5.003;0.0234985
5.004;0.0231934
5.005;0.0228882
5.006;0.0228882
5.007;0.0228882
5.008;0.022583
5.009;0.0222778
5.01;0.0219727
5.011;0.0219727
5.012;0.0219727
5.013;0.0222778
5.014;0.0228882
5.015;0.0234985
5.016;0.0244141
5.017;0.0256348
5.018;0.0271606
5.019;0.0286865
5.02;0.0302124
5.021;0.0320435
5.022;0.0335693
5.023;0.0354004
5.024;0.0372314
5.025;0.0390625
5.026;0.0405884
5.027;0.0421143
5.028;0.043335
5.029;0.0445557
5.03;0.0454712
5.031;0.0466919
5.032;0.0476074
5.033;0.0482178
5.034;0.0485229
5.035;0.0485229
5.036;0.0479126
5.037;0.0473022
5.038;0.0463867
5.039;0.0454712
5.04;0.0448608
5.041;0.0445557
5.042;0.0445557
5.043;0.0448608
5.044;0.045166
5.045;0.0457764
5.046;0.0466919
5.047;0.0473022
5.048;0.0479126
5.049;0.0482178
5.05;0.0488281
5.051;0.0491333
5.052;0.0491333
5.053;0.0494385
5.054;0.0497437
5.055;0.0500488
5.056;0.050354
5.057;0.0506592
5.058;0.0512695
5.059;0.0515747
5.06;0.0515747
5.061;0.0515747
5.062;0.0509644
5.063;0.050354
5.064;0.0497437
5.065;0.0488281
5.066;0.0479126
5.067;0.0469971
5.068;0.0463867
5.069;0.0457764
5.07;0.045166
5.071;0.0448608
5.072;0.0445557
5.073;0.0442505
5.074;0.0436401
5.075;0.0430298
5.076;0.0424194
5.077;0.0418091
5.078;0.0411987
5.079;0.0408936
5.08;0.0405884
5.081;0.0402832
5.082;0.0402832
5.083;0.0396729
5.084;0.0387573
5.085;0.0375366
5.086;0.0366211
5.087;0.0354004
5.088;0.0344849
5.089;0.0338745
5.09;0.0338745
5.091;0.0341797
5.092;0.03479
5.093;0.0357056
5.094;0.0366211
5.095;0.0375366
5.096;0.0384521
5.097;0.0390625
5.098;0.039978
5.099;0.0405884
5.1;0.0415039
5.101;0.0427246
5.102;0.0436401
5.103;0.0448608
5.104;0.0454712
5.105;0.0463867
5.106;0.0466919
5.107;0.0473022
5.108;0.0473022
5.109;0.0476074
5.11;0.0473022
5.111;0.0473022
5.112;0.0466919
5.113;0.0460815
5.114;0.0448608
5.115;0.0436401
5.116;0.0418091
5.117;0.0396729
5.118;0.0372314
5.119;0.03479
5.12;0.0326538
5.121;0.0305176
5.122;0.0289917
5.123;0.027771
5.124;0.0271606
5.125;0.0265503
5.126;0.0262451
5.127;0.0259399
5.128;0.0259399
5.129;0.0256348
5.13;0.0256348
5.131;0.0253296
5.132;0.0253296
5.133;0.0253296
5.134;0.0253296
5.135;0.0253296
5.136;0.0259399
5.137;0.0262451
5.138;0.0262451
5.139;0.0262451
5.14;0.0259399
5.141;0.0256348
5.142;0.0253296
5.143;0.0247192
5.144;0.0244141
5.145;0.0234985
5.146;0.022583
5.147;0.0210571
5.148;0.0192261
5.149;0.017395
5.15;0.0152588
5.151;0.0137329
5.152;0.012207
5.153;0.0115967
5.154;0.0109863
5.155;0.0109863
5.156;0.0106812
5.157;0.0106812
5.158;0.0106812
5.159;0.0106812
5.16;0.0109863
5.161;0.0115967
5.162;0.012207
5.163;0.0128174
5.164;0.0134277
5.165;0.0143433
5.166;0.015564
5.167;0.0170898
5.168;0.0186157
5.169;0.0201416
5.17;0.0210571
5.171;0.0216675
5.172;0.0222778
5.173;0.0222778
5.174;0.022583
5.175;0.022583
5.176;0.0228882
5.177;0.0231934
5.178;0.0231934
5.179;0.0231934
5.18;0.0231934
5.181;0.0234985
5.182;0.0241089
5.183;0.0244141
5.184;0.0250244
5.185;0.0256348
5.186;0.0262451
5.187;0.0271606
5.188;0.0280762
5.189;0.0296021
5.19;0.0311279
5.191;0.0326538
5.192;0.0341797
5.193;0.0360107
5.194;0.0378418
5.195;0.0396729
5.196;0.0415039
5.197;0.043335
5.198;0.045166
5.199;0.0469971
5.2;0.0491333
5.201;0.0515747
5.202;0.0537109
5.203;0.0561523
5.204;0.0585938
5.205;0.0613403
5.206;0.0640869
5.207;0.0671387
5.208;0.0704956
5.209;0.0741577
5.21;0.0778198
5.211;0.0814819
5.212;0.0854492
5.213;0.0891113
5.214;0.0927734
5.215;0.0964355
5.216;0.100098
5.217;0.10376
5.218;0.107727
5.219;0.111389
5.22;0.115051
5.221;0.118408
5.222;0.12146
5.223;0.124207
5.224;0.126343
5.225;0.128174
5.226;0.1297
5.227;0.130615
5.228;0.13092
5.229;0.130615
5.23;0.130005
5.231;0.128479
5.232;0.126648
5.233;0.124207
5.234;0.121765
5.235;0.119324
5.236;0.116577
5.237;0.113525
5.238;0.110168
5.239;0.106201
5.24;0.101929
5.241;0.0976562
5.242;0.093689
5.243;0.090332
5.244;0.0872803
5.245;0.0845337
5.246;0.0817871
5.247;0.0787354
5.248;0.0753784
5.249;0.0720215
5.25;0.0686646
5.251;0.0653076
5.252;0.0619507
5.253;0.0585938
5.254;0.0552368
5.255;0.0521851
5.256;0.0491333
5.257;0.0463867
5.258;0.043335
5.259;0.0405884
5.26;0.0372314
5.261;0.0338745
5.262;0.0302124
5.263;0.0262451
5.264;0.0219727
5.265;0.0180054
5.266;0.0140381
5.267;0.010376
5.268;0.00640869
5.269;0.00305176
5.27;-0.000305176
5.271;-0.00274658
5.272;-0.00488281
5.273;-0.00671387
5.274;-0.00793457
5.275;-0.00915527
5.276;-0.0100708
5.277;-0.0109863
5.278;-0.0115967
5.279;-0.0119019
5.28;-0.012207
5.281;-0.0119019
5.282;-0.0115967
5.283;-0.0109863
5.284;-0.010376
5.285;-0.00946045
5.286;-0.0088501
5.287;-0.00823975
5.288;-0.00762939
5.289;-0.00732422
5.29;-0.00671387
5.291;-0.00640869
5.292;-0.00640869
5.293;-0.00671387
5.294;-0.00701904
5.295;-0.00732422
5.296;-0.00762939
5.297;-0.00793457
5.298;-0.00793457
5.299;-0.00793457
5.3;-0.00823975
5.301;-0.00854492
5.302;-0.0088501
5.303;-0.00946045
5.304;-0.010376
5.305;-0.0112915
5.306;-0.012207
5.307;-0.0131226
5.308;-0.0137329
5.309;-0.0140381
5.31;-0.0146484
5.311;-0.0149536
5.312;-0.0152588
5.313;-0.0161743
5.314;-0.017395
5.315;-0.0186157
5.316;-0.0198364
5.317;-0.0210571
5.318;-0.0219727
5.319;-0.022583
5.32;-0.0222778
5.321;-0.0216675
5.322;-0.0201416
5.323;-0.0180054
5.324;-0.0146484
5.325;-0.010376
5.326;-0.00488281
5.327;0.00183105
5.328;0.0100708
5.329;0.0198364
5.33;0.0311279
5.331;0.0442505
5.332;0.0595093
5.333;0.0759888
5.334;0.0942993
5.335;0.114136
5.336;0.135193
5.337;0.157166
5.338;0.180359
5.339;0.204468
5.34;0.228882
5.341;0.253906
5.342;0.278625
5.343;0.302429
5.344;0.324707
5.345;0.344849
5.346;0.362244
5.347;0.375977
5.348;0.386047
5.349;0.391846
5.35;0.393066
5.351;0.389709
5.352;0.381775
5.353;0.368958
5.354;0.350952
5.355;0.328064
5.356;0.300903
5.357;0.269775
5.358;0.235901
5.359;0.19928
5.36;0.160828
5.361;0.12146
5.362;0.0814819
5.363;0.0415039
5.364;0.00274658
5.365;-0.0344849
5.366;-0.0695801
5.367;-0.102234
5.368;-0.132141
5.369;-0.158691
5.37;-0.18158
5.371;-0.200806
5.372;-0.21637
5.373;-0.227966
5.374;-0.235901
5.375;-0.240173
5.376;-0.241699
5.377;-0.240784
5.378;-0.237732
5.379;-0.232849
5.38;-0.22644
5.381;-0.219116
5.382;-0.211182
5.383;-0.202637
5.384;-0.193787
5.385;-0.184937
5.386;-0.176086
5.387;-0.167236
5.388;-0.158691
5.389;-0.149841
5.39;-0.141296
5.391;-0.132751
5.392;-0.124207
5.393;-0.115662
5.394;-0.107117
5.395;-0.0982666
5.396;-0.0894165
5.397;-0.0808716
5.398;-0.0723267
5.399;-0.0643921
5.4;-0.0570679
5.401;-0.0500488
5.402;-0.0439453
5.403;-0.0387573
5.404;-0.0338745
5.405;-0.0299072
5.406;-0.0262451
5.407;-0.0228882
5.408;-0.0198364
5.409;-0.0167847
5.41;-0.0143433
5.411;-0.0125122
5.412;-0.0109863
5.413;-0.00976562
5.414;-0.0088501
5.415;-0.00823975
5.416;-0.00823975
5.417;-0.00793457
5.418;-0.00793457
5.419;-0.00762939
5.42;-0.00701904
5.421;-0.00640869
5.422;-0.00579834
5.423;-0.00549316
5.424;-0.00488281
5.425;-0.00457764
5.426;-0.00427246
5.427;-0.00366211
5.428;-0.00305176
5.429;-0.00213623
5.43;-0.0012207
5.431;-0.000305176
5.432;0.000610352
5.433;0.0012207
5.434;0.00152588
5.435;0.00183105
5.436;0.00183105
5.437;0.00183105
5.438;0.00183105
5.439;0.00213623
5.44;0.00244141
5.441;0.00274658
5.442;0.00335693
5.443;0.00427246
5.444;0.00488281
5.445;0.00610352
5.446;0.00701904
5.447;0.00793457
5.448;0.00854492
5.449;0.00915527
5.45;0.00915527
5.451;0.00946045
5.452;0.00946045
5.453;0.0100708
5.454;0.0106812
5.455;0.0115967
5.456;0.0128174
5.457;0.0143433
5.458;0.015564
5.459;0.0167847
5.46;0.0180054
5.461;0.0192261
5.462;0.0201416
5.463;0.0210571
5.464;0.0216675
5.465;0.0222778
5.466;0.022583
5.467;0.022583
5.468;0.0222778
5.469;0.0219727
5.47;0.0216675
5.471;0.0213623
5.472;0.0210571
5.473;0.020752
5.474;0.0204468
5.475;0.0195312
5.476;0.0189209
5.477;0.0180054
5.478;0.0177002
5.479;0.017395
5.48;0.017395
5.481;0.017395
5.482;0.017395
5.483;0.017395
5.484;0.0177002
5.485;0.0177002
5.486;0.0180054
5.487;0.0186157
5.488;0.0192261
5.489;0.0198364
5.49;0.020752
5.491;0.0216675
5.492;0.022583
5.493;0.0238037
5.494;0.0250244
5.495;0.0259399
5.496;0.0268555
5.497;0.0274658
5.498;0.0274658
5.499;0.0274658
5.5;0.0268555
5.501;0.0262451
5.502;0.0253296
5.503;0.0241089
5.504;0.0234985
5.505;0.0231934
5.506;0.0231934
5.507;0.0238037
5.508;0.0244141
5.509;0.0253296
5.51;0.0259399
5.511;0.0268555
5.512;0.0274658
5.513;0.0283813
5.514;0.0292969
5.515;0.0305176
5.516;0.0320435
5.517;0.0338745
5.518;0.0357056
5.519;0.0372314
5.52;0.0390625
5.521;0.0405884
5.522;0.0418091
5.523;0.0427246
5.524;0.043335
5.525;0.0439453
5.526;0.0445557
5.527;0.0454712
5.528;0.0460815
5.529;0.0469971
5.53;0.0479126
5.531;0.0485229
5.532;0.0494385
5.533;0.0500488
5.534;0.0506592
5.535;0.0512695
5.536;0.0521851
5.537;0.0534058
5.538;0.0552368
5.539;0.0570679
5.54;0.0595093
5.541;0.0616455
5.542;0.0640869
5.543;0.0665283
5.544;0.0692749
5.545;0.0717163
5.546;0.0744629
5.547;0.0772095
5.548;0.0802612
5.549;0.083313
5.55;0.0860596
5.551;0.088501
5.552;0.0912476
5.553;0.0939941
5.554;0.0967407
5.555;0.0994873
5.556;0.102539
5.557;0.105591
5.558;0.108643
5.559;0.111389
5.56;0.114441
5.561;0.117188
5.562;0.119934
5.563;0.122375
5.564;0.124817
5.565;0.127258
5.566;0.1297
5.567;0.131836
5.568;0.133972
5.569;0.136108
5.57;0.138245
5.571;0.140381
5.572;0.142517
5.573;0.144653
5.574;0.147095
5.575;0.149231
5.576;0.151367
5.577;0.153503
5.578;0.155334
5.579;0.15686
5.58;0.158386
5.581;0.160217
5.582;0.161743
5.583;0.163269
5.584;0.16449
5.585;0.16571
5.586;0.166626
5.587;0.167236
5.588;0.167847
5.589;0.168152
5.59;0.168457
5.591;0.168152
5.592;0.167847
5.593;0.166931
5.594;0.166016
5.595;0.1651
5.596;0.16449
5.597;0.163879
5.598;0.163574
5.599;0.163574
5.6;0.163574
5.601;0.163879
5.602;0.164185
5.603;0.164185
5.604;0.164185
5.605;0.163574
5.606;0.162964
5.607;0.162048
5.608;0.161438
5.609;0.160828
5.61;0.160217
5.611;0.159607
5.612;0.158691
5.613;0.157471
5.614;0.15625
5.615;0.154419
5.616;0.152283
5.617;0.149536
5.618;0.146484
5.619;0.143433
5.62;0.140076
5.621;0.136719
5.622;0.132751
5.623;0.128784
5.624;0.124512
5.625;0.119934
5.626;0.115967
5.627;0.111694
5.628;0.107727
5.629;0.10376
5.63;0.0997925
5.631;0.0958252
5.632;0.0918579
5.633;0.088501
5.634;0.0854492
5.635;0.0823975
5.636;0.0796509
5.637;0.0769043
5.638;0.0741577
5.639;0.0717163
5.64;0.0689697
5.641;0.0665283
5.642;0.0643921
5.643;0.062561
5.644;0.06073
5.645;0.0588989
5.646;0.057373
5.647;0.055542
5.648;0.0537109
5.649;0.0518799
5.65;0.0500488
5.651;0.0479126
5.652;0.0457764
5.653;0.0436401
5.654;0.0411987
5.655;0.0387573
5.656;0.0363159
5.657;0.0338745
5.658;0.0314331
5.659;0.0286865
5.66;0.0259399
5.661;0.0234985
5.662;0.0213623
5.663;0.0198364
5.664;0.0183105
5.665;0.0167847
5.666;0.0152588
5.667;0.0137329
5.668;0.0125122
5.669;0.0115967
5.67;0.0109863
5.671;0.010376
5.672;0.010376
5.673;0.010376
5.674;0.0109863
5.675;0.0112915
5.676;0.0119019
5.677;0.0125122
5.678;0.0131226
5.679;0.0137329
5.68;0.0140381
5.681;0.0146484
5.682;0.015564
5.683;0.0161743
5.684;0.0170898
5.685;0.017395
5.686;0.017395
5.687;0.017395
5.688;0.0170898
5.689;0.0167847
5.69;0.0161743
5.691;0.0158691
5.692;0.015564
5.693;0.015564
5.694;0.015564
5.695;0.015564
5.696;0.0158691
5.697;0.0164795
5.698;0.0170898
5.699;0.0177002
5.7;0.0186157
5.701;0.0195312
5.702;0.0204468
5.703;0.0213623
5.704;0.0222778
5.705;0.0234985
5.706;0.0247192
5.707;0.0256348
5.708;0.0268555
5.709;0.027771
5.71;0.0286865
5.711;0.0296021
5.712;0.0308228
5.713;0.0317383
5.714;0.0326538
5.715;0.0335693
5.716;0.0341797
5.717;0.0344849
5.718;0.0344849
5.719;0.0341797
5.72;0.0338745
5.721;0.0332642
5.722;0.0332642
5.723;0.0332642
5.724;0.0335693
5.725;0.0341797
5.726;0.03479
5.727;0.0357056
5.728;0.0369263
5.729;0.0378418
5.73;0.0390625
5.731;0.039978
5.732;0.0405884
5.733;0.0415039
5.734;0.0418091
5.735;0.0421143
5.736;0.0421143
5.737;0.0421143
5.738;0.0418091
5.739;0.0418091
5.74;0.0418091
5.741;0.0421143
5.742;0.0424194
5.743;0.0430298
5.744;0.0436401
5.745;0.0439453
5.746;0.0442505
5.747;0.0445557
5.748;0.0445557
5.749;0.0445557
5.75;0.0445557
5.751;0.0445557
5.752;0.0448608
5.753;0.0454712
5.754;0.0463867
5.755;0.0473022
5.756;0.0482178
5.757;0.0491333
5.758;0.0497437
5.759;0.050354
5.76;0.0506592
5.761;0.0509644
5.762;0.0509644
5.763;0.0509644
5.764;0.0509644
5.765;0.0509644
5.766;0.0509644
5.767;0.0509644
5.768;0.0509644
5.769;0.0509644
5.77;0.0509644
5.771;0.0512695
5.772;0.0512695
5.773;0.0518799
5.774;0.0521851
5.775;0.0524902
5.776;0.0524902
5.777;0.0521851
5.778;0.0521851
5.779;0.0518799
5.78;0.0518799
5.781;0.0518799
5.782;0.0521851
5.783;0.0524902
5.784;0.0524902
5.785;0.0518799
5.786;0.0509644
5.787;0.0497437
5.788;0.0482178
5.789;0.0466919
5.79;0.0457764
5.791;0.045166
5.792;0.045166
5.793;0.0454712
5.794;0.0457764
5.795;0.0460815
5.796;0.0463867
5.797;0.0460815
5.798;0.0457764
5.799;0.0454712
5.8;0.045166
5.801;0.0448608
5.802;0.0448608
5.803;0.045166
5.804;0.0457764
5.805;0.0466919
5.806;0.0482178
5.807;0.0494385
5.808;0.0506592
5.809;0.0515747
5.81;0.0518799
5.811;0.0515747
5.812;0.0506592
5.813;0.0494385
5.814;0.0485229
5.815;0.0473022
5.816;0.0466919
5.817;0.0460815
5.818;0.0454712
5.819;0.0448608
5.82;0.0442505
5.821;0.043335
5.822;0.0424194
5.823;0.0411987
5.824;0.039978
5.825;0.0387573
5.826;0.0375366
5.827;0.0363159
5.828;0.0350952
5.829;0.0341797
5.83;0.0332642
5.831;0.0326538
5.832;0.0320435
5.833;0.0317383
5.834;0.0314331
5.835;0.0314331
5.836;0.0314331
5.837;0.0314331
5.838;0.0314331
5.839;0.0314331
5.84;0.0314331
5.841;0.0314331
5.842;0.0314331
5.843;0.0314331
5.844;0.0311279
5.845;0.0311279
5.846;0.0308228
5.847;0.0305176
5.848;0.0308228
5.849;0.0308228
5.85;0.0311279
5.851;0.0311279
5.852;0.0314331
5.853;0.0314331
5.854;0.0314331
5.855;0.0314331
5.856;0.0314331
5.857;0.0314331
5.858;0.0311279
5.859;0.0311279
5.86;0.0308228
5.861;0.0308228
5.862;0.0314331
5.863;0.0323486
5.864;0.0335693
5.865;0.03479
5.866;0.0357056
5.867;0.0363159
5.868;0.0363159
5.869;0.0366211
5.87;0.0366211
5.871;0.0372314
5.872;0.038147
5.873;0.0387573
5.874;0.0390625
5.875;0.0390625
5.876;0.0387573
5.877;0.0384521
5.878;0.0378418
5.879;0.0378418
5.88;0.0378418
5.881;0.0378418
5.882;0.038147
5.883;0.0384521
5.884;0.0384521
5.885;0.0387573
5.886;0.0387573
5.887;0.0387573
5.888;0.0390625
5.889;0.0393677
5.89;0.039978
5.891;0.0405884
5.892;0.0411987
5.893;0.0418091
5.894;0.0424194
5.895;0.043335
5.896;0.0448608
5.897;0.0469971
5.898;0.0494385
5.899;0.0518799
5.9;0.0543213
5.901;0.0567627
5.902;0.0595093
5.903;0.0619507
5.904;0.0643921
5.905;0.0671387
5.906;0.0695801
5.907;0.0723267
5.908;0.0747681
5.909;0.0775146
5.91;0.0802612
5.911;0.083313
5.912;0.0866699
5.913;0.0897217
5.914;0.0924683
5.915;0.0952148
5.916;0.0976562
5.917;0.0997925
5.918;0.102234
5.919;0.10437
5.92;0.106812
5.921;0.108948
5.922;0.111084
5.923;0.11322
5.924;0.115051
5.925;0.116882
5.926;0.118713
5.927;0.120239
5.928;0.121765
5.929;0.123596
5.93;0.125122
5.931;0.126648
5.932;0.127869
5.933;0.129395
5.934;0.130615
5.935;0.131836
5.936;0.133057
5.937;0.134277
5.938;0.134888
5.939;0.135193
5.94;0.135193
5.941;0.134583
5.942;0.133362
5.943;0.131531
5.944;0.129395
5.945;0.126953
5.946;0.124207
5.947;0.12146
5.948;0.118408
5.949;0.115356
5.95;0.112305
5.951;0.109253
5.952;0.106201
5.953;0.103149
5.954;0.100098
5.955;0.0964355
5.956;0.0927734
5.957;0.0891113
5.958;0.085144
5.959;0.0814819
5.96;0.078125
5.961;0.0750732
5.962;0.0720215
5.963;0.0692749
5.964;0.0665283
5.965;0.0637817
5.966;0.0610352
5.967;0.0582886
5.968;0.0552368
5.969;0.0524902
5.97;0.0494385
5.971;0.0463867
5.972;0.043335
5.973;0.039978
5.974;0.0369263
5.975;0.0335693
5.976;0.0299072
5.977;0.0262451
5.978;0.022583
5.979;0.0186157
5.98;0.0146484
5.981;0.0109863
5.982;0.00823975
5.983;0.00640869
5.984;0.00549316
5.985;0.00488281
5.986;0.00457764
5.987;0.00396729
5.988;0.00366211
5.989;0.00366211
5.99;0.00366211
5.991;0.00396729
5.992;0.00488281
5.993;0.00579834
5.994;0.00671387
5.995;0.00762939
5.996;0.00854492
5.997;0.00946045
5.998;0.0106812
5.999;0.0119019
6;0.0128174
6.001;0.0140381
6.002;0.0149536
6.003;0.0158691
6.004;0.0164795
6.005;0.0167847
6.006;0.0170898
6.007;0.0170898
6.008;0.0167847
6.009;0.0161743
6.01;0.0158691
6.011;0.0152588
6.012;0.0146484
6.013;0.0143433
6.014;0.0140381
6.015;0.0137329
6.016;0.0134277
6.017;0.0125122
6.018;0.0115967
6.019;0.0100708
6.02;0.00823975
6.021;0.00640869
6.022;0.00427246
6.023;0.00183105
6.024;-0.000305176
6.025;-0.00305176
6.026;-0.00549316
6.027;-0.00762939
6.028;-0.0088501
6.029;-0.00946045
6.03;-0.00946045
6.031;-0.00854492
6.032;-0.00732422
6.033;-0.00549316
6.034;-0.00305176
6.035;0.000610352
6.036;0.00579834
6.037;0.0125122
6.038;0.0213623
6.039;0.0320435
6.04;0.0445557
6.041;0.0588989
6.042;0.0747681
6.043;0.0921631
6.044;0.111389
6.045;0.132141
6.046;0.153809
6.047;0.176697
6.048;0.2005
6.049;0.224915
6.05;0.250244
6.051;0.275574
6.052;0.300903
6.053;0.325317
6.054;0.348511
6.055;0.369873
6.056;0.388794
6.057;0.404358
6.058;0.416565
6.059;0.4245
6.06;0.427856
6.061;0.426941
6.062;0.421143
6.063;0.410461
6.064;0.394592
6.065;0.37384
6.066;0.348206
6.067;0.318909
6.068;0.28595
6.069;0.249939
6.07;0.211792
6.071;0.171509
6.072;0.130005
6.073;0.0888062
6.074;0.0479126
6.075;0.00854492
6.076;-0.0292969
6.077;-0.0650024
6.078;-0.0979614
6.079;-0.128174
6.08;-0.155029
6.081;-0.178223
6.082;-0.197449
6.083;-0.213013
6.084;-0.224915
6.085;-0.233154
6.086;-0.237732
6.087;-0.239258
6.088;-0.238037
6.089;-0.234985
6.09;-0.230103
6.091;-0.223694
6.092;-0.216064
6.093;-0.20752
6.094;-0.197754
6.095;-0.187683
6.096;-0.177612
6.097;-0.167236
6.098;-0.157471
6.099;-0.147705
6.1;-0.137939
6.101;-0.128479
6.102;-0.118713
6.103;-0.108948
6.104;-0.0994873
6.105;-0.0897217
6.106;-0.0805664
6.107;-0.0717163
6.108;-0.0637817
6.109;-0.0558472
6.11;-0.0485229
6.111;-0.0411987
6.112;-0.0344849
6.113;-0.0283813
6.114;-0.0228882
6.115;-0.0180054
6.116;-0.0137329
6.117;-0.010376
6.118;-0.00762939
6.119;-0.00579834
6.12;-0.00427246
6.121;-0.00335693
6.122;-0.00244141
6.123;-0.00183105
6.124;-0.00152588
6.125;-0.0012207
6.126;-0.0012207
6.127;-0.0012207
6.128;-0.0012207
6.129;-0.0012207
6.13;-0.00152588
6.131;-0.00183105
6.132;-0.00183105
6.133;-0.00244141
6.134;-0.00244141
6.135;-0.00274658
6.136;-0.00305176
6.137;-0.00305176
6.138;-0.00305176
6.139;-0.00305176
6.14;-0.00305176
6.141;-0.00305176
6.142;-0.00274658
6.143;-0.00152588
6.144;-0.000305176
6.145;0.00152588
6.146;0.00305176
6.147;0.00457764
6.148;0.00610352
6.149;0.00732422
6.15;0.00854492
6.151;0.00946045
6.152;0.0100708
6.153;0.0106812
6.154;0.0109863
6.155;0.0115967
6.156;0.012207
6.157;0.0131226
6.158;0.0140381
6.159;0.0146484
6.16;0.0149536
6.161;0.0149536
6.162;0.0146484
6.163;0.0143433
6.164;0.0140381
6.165;0.0137329
6.166;0.0137329
6.167;0.0137329
6.168;0.0140381
6.169;0.0143433
6.17;0.0146484
6.171;0.0149536
6.172;0.0152588
6.173;0.0158691
6.174;0.0170898
6.175;0.0183105
6.176;0.0198364
6.177;0.0213623
6.178;0.0228882
6.179;0.0244141
6.18;0.0256348
6.181;0.0265503
6.182;0.027771
6.183;0.0286865
6.184;0.0296021
6.185;0.0305176
6.186;0.0311279
6.187;0.0311279
6.188;0.0311279
6.189;0.0305176
6.19;0.0302124
6.191;0.0292969
6.192;0.0286865
6.193;0.0274658
6.194;0.0265503
6.195;0.0253296
6.196;0.0238037
6.197;0.022583
6.198;0.0213623
6.199;0.0201416
6.2;0.0192261
6.201;0.0186157
6.202;0.0183105
6.203;0.0183105
6.204;0.0186157
6.205;0.0189209
6.206;0.0195312
6.207;0.0201416
6.208;0.0210571
6.209;0.0219727
6.21;0.0228882
6.211;0.0238037
6.212;0.0250244
6.213;0.0259399
6.214;0.0271606
6.215;0.0280762
6.216;0.0292969
6.217;0.0302124
6.218;0.0311279
6.219;0.0320435
6.22;0.0332642
6.221;0.0341797
6.222;0.0354004
6.223;0.0366211
6.224;0.0378418
6.225;0.0390625
6.226;0.039978
6.227;0.0405884
6.228;0.0411987
6.229;0.0418091
6.23;0.0424194
6.231;0.0430298
6.232;0.0439453
6.233;0.0448608
6.234;0.0454712
6.235;0.0463867
6.236;0.0469971
6.237;0.0476074
6.238;0.0479126
6.239;0.0485229
6.24;0.0491333
6.241;0.0497437
6.242;0.0509644
6.243;0.0518799
6.244;0.0531006
6.245;0.0543213
6.246;0.0558472
6.247;0.057373
6.248;0.0588989
6.249;0.0604248
6.25;0.062561
6.251;0.0650024
6.252;0.0674438
6.253;0.0701904
6.254;0.0732422
6.255;0.0765991
6.256;0.0796509
6.257;0.0827026
6.258;0.0857544
6.259;0.088501
6.26;0.0912476
6.261;0.093689
6.262;0.0961304
6.263;0.0982666
6.264;0.100403
6.265;0.102234
6.266;0.10437
6.267;0.106506
6.268;0.109253
6.269;0.112305
6.27;0.115662
6.271;0.119324
6.272;0.122986
6.273;0.126953
6.274;0.13092
6.275;0.135193
6.276;0.13916
6.277;0.142822
6.278;0.146484
6.279;0.149841
6.28;0.153198
6.281;0.156555
6.282;0.159912
6.283;0.163879
6.284;0.167542
6.285;0.171204
6.286;0.174561
6.287;0.177612
6.288;0.180054
6.289;0.18158
6.29;0.1828
6.291;0.183411
6.292;0.183105
6.293;0.1828
6.294;0.181885
6.295;0.18158
6.296;0.18158
6.297;0.18219
6.298;0.183105
6.299;0.184326
6.3;0.185547
6.301;0.186768
6.302;0.187988
6.303;0.188904
6.304;0.189819
6.305;0.190125
6.306;0.19043
6.307;0.19043
6.308;0.19043
6.309;0.19043
6.31;0.190735
6.311;0.19104
6.312;0.191345
6.313;0.191345
6.314;0.19104
6.315;0.190125
6.316;0.188599
6.317;0.186768
6.318;0.184326
6.319;0.18158
6.32;0.178223
6.321;0.174866
6.322;0.171509
6.323;0.167847
6.324;0.16449
6.325;0.161133
6.326;0.158081
6.327;0.155029
6.328;0.151978
6.329;0.148621
6.33;0.145264
6.331;0.141907
6.332;0.13855
6.333;0.135498
6.334;0.132446
6.335;0.129395
6.336;0.126648
6.337;0.123596
6.338;0.12085
6.339;0.117493
6.34;0.114441
6.341;0.111084
6.342;0.108032
6.343;0.104675
6.344;0.101624
6.345;0.0982666
6.346;0.0949097
6.347;0.0915527
6.348;0.0881958
6.349;0.085144
6.35;0.0820923
6.351;0.0790405
6.352;0.0759888
6.353;0.072937
6.354;0.0698853
6.355;0.0668335
6.356;0.0643921
6.357;0.0619507
6.358;0.0595093
6.359;0.0576782
6.36;0.055542
6.361;0.0537109
6.362;0.0515747
6.363;0.0491333
6.364;0.0469971
6.365;0.0445557
6.366;0.0424194
6.367;0.0402832
6.368;0.0387573
6.369;0.0369263
6.37;0.0354004
6.371;0.0338745
6.372;0.0320435
6.373;0.0305176
6.374;0.0289917
6.375;0.027771
6.376;0.0265503
6.377;0.0256348
6.378;0.0247192
6.379;0.0244141
6.38;0.0241089
6.381;0.0244141
6.382;0.0250244
6.383;0.0256348
6.384;0.0265503
6.385;0.0274658
6.386;0.0280762
6.387;0.0286865
6.388;0.0289917
6.389;0.0292969
6.39;0.0299072
6.391;0.0302124
6.392;0.0305176
6.393;0.0305176
6.394;0.0308228
6.395;0.0308228
6.396;0.0308228
6.397;0.0308228
6.398;0.0311279
6.399;0.0311279
6.4;0.0311279
6.401;0.0308228
6.402;0.0305176
6.403;0.0296021
6.404;0.0289917
6.405;0.0283813
6.406;0.0280762
6.407;0.027771
6.408;0.027771
6.409;0.0283813
6.41;0.0292969
6.411;0.0302124
6.412;0.0311279
6.413;0.0320435
6.414;0.0326538
6.415;0.0332642
6.416;0.0341797
6.417;0.0350952
6.418;0.0363159
6.419;0.0378418
6.42;0.0393677
6.421;0.0408936
6.422;0.0424194
6.423;0.043335
6.424;0.0445557
6.425;0.0454712
6.426;0.0463867
6.427;0.0476074
6.428;0.0485229
6.429;0.0497437
6.43;0.0509644
6.431;0.0521851
6.432;0.0531006
6.433;0.0543213
6.434;0.0552368
6.435;0.0561523
6.436;0.0567627
6.437;0.0576782
6.438;0.0585938
6.439;0.0601196
6.44;0.0619507
6.441;0.0640869
6.442;0.0665283
6.443;0.0686646
6.444;0.071106
6.445;0.072937
6.446;0.0750732
6.447;0.0765991
6.448;0.078125
6.449;0.0793457
6.45;0.0805664
6.451;0.0814819
6.452;0.0823975
6.453;0.083313
6.454;0.0842285
6.455;0.0854492
6.456;0.0863647
6.457;0.0872803
6.458;0.0881958
6.459;0.088501
6.46;0.0888062
6.461;0.0888062
6.462;0.088501
6.463;0.0881958
6.464;0.0878906
6.465;0.0875854
6.466;0.0872803
6.467;0.0872803
6.468;0.0875854
6.469;0.0878906
6.47;0.0878906
6.471;0.0881958
6.472;0.0881958
6.473;0.0881958
6.474;0.0881958
6.475;0.0881958
6.476;0.088501
6.477;0.0888062
6.478;0.0891113
6.479;0.0888062
6.48;0.0878906
6.481;0.0866699
6.482;0.0857544
6.483;0.085144
6.484;0.0845337
6.485;0.0842285
6.486;0.0839233
6.487;0.0836182
6.488;0.0830078
6.489;0.0823975
6.49;0.0820923
6.491;0.0820923
6.492;0.0820923
6.493;0.0820923
6.494;0.0820923
6.495;0.0817871
6.496;0.0814819
6.497;0.0811768
6.498;0.0805664
6.499;0.0802612
6.5;0.0796509
6.501;0.0793457
6.502;0.0790405
6.503;0.0787354
6.504;0.078125
6.505;0.0775146
6.506;0.0765991
6.507;0.0759888
6.508;0.0753784
6.509;0.0744629
6.51;0.0735474
6.511;0.0723267
6.512;0.0714111
6.513;0.0704956
6.514;0.0698853
6.515;0.0689697
6.516;0.0683594
6.517;0.0680542
6.518;0.0674438
6.519;0.0671387
6.52;0.0665283
6.521;0.065918
6.522;0.0653076
6.523;0.0646973
6.524;0.0634766
6.525;0.0619507
6.526;0.06073
6.527;0.0595093
6.528;0.0585938
6.529;0.0582886
6.53;0.0582886
6.531;0.0582886
6.532;0.0582886
6.533;0.0582886
6.534;0.0582886
6.535;0.0582886
6.536;0.0585938
6.537;0.0592041
6.538;0.0598145
6.539;0.06073
6.54;0.0616455
6.541;0.0628662
6.542;0.0640869
6.543;0.0656128
6.544;0.0668335
6.545;0.0683594
6.546;0.0695801
6.547;0.0704956
6.548;0.0714111
6.549;0.0720215
6.55;0.0723267
6.551;0.0723267
6.552;0.0720215
6.553;0.0714111
6.554;0.0704956
6.555;0.0689697
6.556;0.0674438
6.557;0.0656128
6.558;0.0637817
6.559;0.0619507
6.56;0.0604248
6.561;0.0592041
6.562;0.0579834
6.563;0.057373
6.564;0.0570679
6.565;0.0567627
6.566;0.0564575
6.567;0.0564575
6.568;0.0564575
6.569;0.0564575
6.57;0.0564575
6.571;0.0564575
6.572;0.0564575
6.573;0.0561523
6.574;0.0558472
6.575;0.0558472
6.576;0.0558472
6.577;0.0564575
6.578;0.0567627
6.579;0.057373
6.58;0.057373
6.581;0.0567627
6.582;0.0558472
6.583;0.0549316
6.584;0.0540161
6.585;0.0534058
6.586;0.0531006
6.587;0.0531006
6.588;0.0537109
6.589;0.0540161
6.59;0.0546265
6.591;0.0552368
6.592;0.055542
6.593;0.0558472
6.594;0.0564575
6.595;0.0570679
6.596;0.057373
6.597;0.0579834
6.598;0.0582886
6.599;0.0582886
6.6;0.0579834
6.601;0.0579834
6.602;0.0576782
6.603;0.057373
6.604;0.0570679
6.605;0.0564575
6.606;0.0561523
6.607;0.0558472
6.608;0.055542
6.609;0.0552368
6.61;0.0549316
6.611;0.0546265
6.612;0.0540161
6.613;0.0534058
6.614;0.0531006
6.615;0.0531006
6.616;0.0537109
6.617;0.0549316
6.618;0.0564575
6.619;0.0582886
6.62;0.0604248
6.621;0.0622559
6.622;0.0643921
6.623;0.0665283
6.624;0.0683594
6.625;0.0704956
6.626;0.0723267
6.627;0.0741577
6.628;0.0756836
6.629;0.0772095
6.63;0.0790405
6.631;0.0805664
6.632;0.0823975
6.633;0.0839233
6.634;0.0857544
6.635;0.0872803
6.636;0.0888062
6.637;0.0897217
6.638;0.0906372
6.639;0.0912476
6.64;0.0915527
6.641;0.0918579
6.642;0.0918579
6.643;0.0921631
6.644;0.0927734
6.645;0.0933838
6.646;0.0939941
6.647;0.0949097
6.648;0.0958252
6.649;0.0970459
6.65;0.0982666
6.651;0.0997925
6.652;0.101929
6.653;0.104065
6.654;0.106506
6.655;0.109253
6.656;0.112305
6.657;0.115967
6.658;0.119934
6.659;0.124207
6.66;0.128479
6.661;0.132751
6.662;0.136719
6.663;0.140381
6.664;0.144043
6.665;0.147705
6.666;0.151062
6.667;0.154724
6.668;0.158081
6.669;0.161133
6.67;0.163879
6.671;0.16571
6.672;0.166626
6.673;0.166626
6.674;0.165405
6.675;0.163269
6.676;0.160217
6.677;0.15686
6.678;0.153503
6.679;0.149536
6.68;0.145569
6.681;0.141296
6.682;0.136108
6.683;0.13092
6.684;0.125427
6.685;0.120544
6.686;0.115662
6.687;0.111084
6.688;0.106812
6.689;0.103455
6.69;0.100098
6.691;0.0970459
6.692;0.0939941
6.693;0.0909424
6.694;0.0872803
6.695;0.0839233
6.696;0.0808716
6.697;0.0784302
6.698;0.0759888
6.699;0.0738525
6.7;0.0717163
6.701;0.0695801
6.702;0.0674438
6.703;0.0646973
6.704;0.0616455
6.705;0.0585938
6.706;0.0549316
6.707;0.0512695
6.708;0.0473022
6.709;0.043335
6.71;0.0396729
6.711;0.0357056
6.712;0.0320435
6.713;0.0283813
6.714;0.0250244
6.715;0.0219727
6.716;0.0189209
6.717;0.0161743
6.718;0.0134277
6.719;0.0109863
6.72;0.0088501
6.721;0.00701904
6.722;0.00579834
6.723;0.00488281
6.724;0.00427246
6.725;0.00396729
6.726;0.00366211
6.727;0.00335693
6.728;0.00305176
6.729;0.00274658
6.73;0.00305176
6.731;0.00305176
6.732;0.00335693
6.733;0.00396729
6.734;0.00457764
6.735;0.00549316
6.736;0.00640869
6.737;0.00793457
6.738;0.00946045
6.739;0.0112915
6.74;0.0128174
6.741;0.0140381
6.742;0.0152588
6.743;0.0161743
6.744;0.0164795
6.745;0.0164795
6.746;0.0164795
6.747;0.0164795
6.748;0.0161743
6.749;0.0164795
6.75;0.0164795
6.751;0.0161743
6.752;0.0158691
6.753;0.0152588
6.754;0.0143433
6.755;0.0128174
6.756;0.0112915
6.757;0.00946045
6.758;0.00701904
6.759;0.00488281
6.76;0.00305176
6.761;0.0012207
6.762;-0.000305176
6.763;-0.00152588
6.764;-0.00213623
6.765;-0.00213623
6.766;-0.0012207
6.767;0
6.768;0.00183105
6.769;0.00518799
6.77;0.00976562
6.771;0.0161743
6.772;0.0244141
6.773;0.0344849
6.774;0.0457764
6.775;0.0588989
6.776;0.0738525
6.777;0.0906372
6.778;0.108948
6.779;0.129089
6.78;0.151062
6.781;0.174866
6.782;0.200195
6.783;0.226746
6.784;0.254211
6.785;0.281982
6.786;0.310059
6.787;0.336914
6.788;0.362244
6.789;0.385437
6.79;0.405884
6.791;0.422668
6.792;0.436096
6.793;0.445251
6.794;0.450439
6.795;0.450745
6.796;0.446167
6.797;0.436096
6.798;0.420532
6.799;0.400085
6.8;0.375061
6.801;0.346069
6.802;0.313416
6.803;0.277405
6.804;0.239258
6.805;0.198669
6.806;0.157471
6.807;0.116272
6.808;0.0756836
6.809;0.0363159
6.81;-0.0012207
6.811;-0.0363159
6.812;-0.0689697
6.813;-0.0982666
6.814;-0.124817
6.815;-0.147705
6.816;-0.167542
6.817;-0.183716
6.818;-0.196228
6.819;-0.205383
6.82;-0.211182
6.821;-0.213623
6.822;-0.213623
6.823;-0.211487
6.824;-0.20752
6.825;-0.202332
6.826;-0.195923
6.827;-0.188599
6.828;-0.180664
6.829;-0.172119
6.83;-0.163574
6.831;-0.154724
6.832;-0.145569
6.833;-0.136414
6.834;-0.126648
6.835;-0.116882
6.836;-0.106812
6.837;-0.0967407
6.838;-0.0866699
6.839;-0.0772095
6.84;-0.0680542
6.841;-0.0598145
6.842;-0.0518799
6.843;-0.0442505
6.844;-0.0372314
6.845;-0.0308228
6.846;-0.0250244
6.847;-0.0198364
6.848;-0.0152588
6.849;-0.0115967
6.85;-0.0088501
6.851;-0.00640869
6.852;-0.00457764
6.853;-0.00335693
6.854;-0.00274658
6.855;-0.00244141
6.856;-0.00244141
6.857;-0.00244141
6.858;-0.00244141
6.859;-0.00244141
6.86;-0.00274658
6.861;-0.00305176
6.862;-0.00335693
6.863;-0.00396729
6.864;-0.00427246
6.865;-0.00457764
6.866;-0.00457764
6.867;-0.00457764
6.868;-0.00457764
6.869;-0.00457764
6.87;-0.00457764
6.871;-0.00427246
6.872;-0.00427246
6.873;-0.00427246
6.874;-0.00427246
6.875;-0.00396729
6.876;-0.00335693
6.877;-0.00244141
6.878;-0.00152588
6.879;-0.000305176
6.88;0.000610352
6.881;0.00183105
6.882;0.00274658
6.883;0.00396729
6.884;0.00488281
6.885;0.00610352
6.886;0.00701904
6.887;0.00793457
6.888;0.00854492
6.889;0.00915527
6.89;0.00976562
6.891;0.0100708
6.892;0.0100708
6.893;0.010376
6.894;0.010376
6.895;0.0100708
6.896;0.0100708
6.897;0.0100708
6.898;0.0100708
6.899;0.0100708
6.9;0.00976562
6.901;0.00946045
6.902;0.00946045
6.903;0.00915527
6.904;0.0088501
6.905;0.00854492
6.906;0.00854492
6.907;0.00854492
6.908;0.00854492
6.909;0.00915527
6.91;0.00976562
6.911;0.0106812
6.912;0.0112915
6.913;0.0115967
6.914;0.0115967
6.915;0.0119019
6.916;0.012207
6.917;0.0125122
6.918;0.0128174
6.919;0.0134277
6.92;0.0140381
6.921;0.0149536
6.922;0.0158691
6.923;0.0167847
6.924;0.0180054
6.925;0.0189209
6.926;0.0198364
6.927;0.0201416
6.928;0.020752
6.929;0.0210571
6.93;0.0213623
6.931;0.0219727
6.932;0.0228882
6.933;0.0238037
6.934;0.0247192
6.935;0.0256348
6.936;0.0268555
6.937;0.0274658
6.938;0.0280762
6.939;0.0280762
6.94;0.0280762
6.941;0.027771
6.942;0.0271606
6.943;0.0265503
6.944;0.0259399
6.945;0.0250244
6.946;0.0244141
6.947;0.0238037
6.948;0.0238037
6.949;0.0238037
6.95;0.0234985
6.951;0.0234985
6.952;0.0228882
6.953;0.0222778
6.954;0.0213623
6.955;0.020752
6.956;0.020752
6.957;0.020752
6.958;0.0213623
6.959;0.0222778
6.96;0.0231934
6.961;0.0244141
6.962;0.0259399
6.963;0.0271606
6.964;0.0283813
6.965;0.0296021
6.966;0.0305176
6.967;0.0317383
6.968;0.032959
6.969;0.0344849
6.97;0.0360107
6.971;0.0378418
6.972;0.0396729
6.973;0.0415039
6.974;0.043335
6.975;0.045166
6.976;0.0466919
6.977;0.0482178
6.978;0.0497437
6.979;0.0512695
6.98;0.0527954
6.981;0.0546265
6.982;0.0564575
