0;-0.0320435
0.001;-0.0286865
0.002;-0.0244141
0.003;-0.0192261
0.004;-0.0137329
0.005;-0.00762939
0.006;-0.00152588
0.007;0.00457764
0.008;0.010376
0.009;0.0158691
0.01;0.0204468
0.011;0.0241089
0.012;0.0274658
0.013;0.0302124
0.014;0.0323486
0.015;0.0335693
0.016;0.0338745
0.017;0.0332642
0.018;0.0320435
0.019;0.0299072
0.02;0.0274658
0.021;0.0250244
0.022;0.022583
0.023;0.0201416
0.024;0.0183105
0.025;0.0164795
0.026;0.0149536
0.027;0.0137329
0.028;0.0128174
0.029;0.0119019
0.03;0.0112915
0.031;0.010376
0.032;0.00946045
0.033;0.00854492
0.034;0.00793457
0.035;0.00762939
0.036;0.00823975
0.037;0.00976562
0.038;0.0115967
0.039;0.0134277
0.04;0.0149536
0.041;0.0161743
0.042;0.0170898
0.043;0.0180054
0.044;0.0195312
0.045;0.0213623
0.046;0.0231934
0.047;0.0250244
0.048;0.0265503
0.049;0.027771
0.05;0.0289917
0.051;0.0302124
0.052;0.0311279
0.053;0.0320435
0.054;0.0332642
0.055;0.0344849
0.056;0.0357056
0.057;0.0369263
0.058;0.0378418
0.059;0.038147
0.06;0.038147
0.061;0.0375366
0.062;0.0366211
0.063;0.0350952
0.064;0.0332642
0.065;0.0311279
0.066;0.0283813
0.067;0.0256348
0.068;0.022583
0.069;0.0192261
0.07;0.0152588
0.071;0.0106812
0.072;0.00579834
0.073;0.000915527
0.074;-0.00457764
0.075;-0.0100708
0.076;-0.0158691
0.077;-0.0216675
0.078;-0.0268555
0.079;-0.0320435
0.08;-0.0369263
0.081;-0.0415039
0.082;-0.0463867
0.083;-0.0515747
0.084;-0.0570679
0.085;-0.062561
0.086;-0.0680542
0.087;-0.072937
0.088;-0.0769043
0.089;-0.0799561
0.09;-0.0817871
0.091;-0.0827026
0.092;-0.0830078
0.093;-0.0827026
0.094;-0.0820923
0.095;-0.0811768
0.096;-0.0802612
0.097;-0.0793457
0.098;-0.078125
0.099;-0.0765991
0.1;-0.0744629
0.101;-0.0717163
0.102;-0.0686646
0.103;-0.065918
0.104;-0.0631714
0.105;-0.0610352
0.106;-0.0598145
0.107;-0.0592041
0.108;-0.0592041
0.109;-0.0592041
0.11;-0.0598145
0.111;-0.0604248
0.112;-0.0613403
0.113;-0.062561
0.114;-0.0634766
0.115;-0.0646973
0.116;-0.0656128
0.117;-0.0665283
0.118;-0.0671387
0.119;-0.0674438
0.12;-0.067749
0.121;-0.0674438
0.122;-0.0671387
0.123;-0.0668335
0.124;-0.065918
0.125;-0.0646973
0.126;-0.0631714
0.127;-0.0610352
0.128;-0.0588989
0.129;-0.0567627
0.13;-0.0549316
0.131;-0.0534058
0.132;-0.0521851
0.133;-0.0512695
0.134;-0.0506592
0.135;-0.0500488
0.136;-0.0491333
0.137;-0.0476074
0.138;-0.0448608
0.139;-0.0415039
0.14;-0.0366211
0.141;-0.0308228
0.142;-0.0234985
0.143;-0.0140381
0.144;-0.00274658
0.145;0.0109863
0.146;0.0274658
0.147;0.0469971
0.148;0.0695801
0.149;0.0952148
0.15;0.124207
0.151;0.156555
0.152;0.192566
0.153;0.232239
0.154;0.275269
0.155;0.321655
0.156;0.371094
0.157;0.424194
0.158;0.480042
0.159;0.539246
0.16;0.600891
0.161;0.664673
0.162;0.730896
0.163;0.798645
0.164;0.867615
0.165;0.935669
0.166;1.00159
0.167;1.06323
0.168;1.11908
0.169;1.16821
0.17;1.21063
0.171;1.24573
0.172;1.2738
0.173;1.29395
0.174;1.30585
0.175;1.30768
0.176;1.29852
0.177;1.27625
0.178;1.24023
0.179;1.19019
0.18;1.1264
0.181;1.04919
0.182;0.960083
0.183;0.861206
0.184;0.754089
0.185;0.641479
0.186;0.525818
0.187;0.408936
0.188;0.292969
0.189;0.179749
0.19;0.0717163
0.191;-0.0305176
0.192;-0.126038
0.193;-0.213318
0.194;-0.291748
0.195;-0.360413
0.196;-0.418396
0.197;-0.465698
0.198;-0.502014
0.199;-0.527344
0.2;-0.541992
0.201;-0.546265
0.202;-0.541077
0.203;-0.527649
0.204;-0.507507
0.205;-0.481873
0.206;-0.452271
0.207;-0.420837
0.208;-0.387878
0.209;-0.355225
0.21;-0.323792
0.211;-0.294189
0.212;-0.267334
0.213;-0.24353
0.214;-0.223083
0.215;-0.205688
0.216;-0.191345
0.217;-0.178833
0.218;-0.168457
0.219;-0.159912
0.22;-0.152283
0.221;-0.146179
0.222;-0.140991
0.223;-0.137024
0.224;-0.133667
0.225;-0.131226
0.226;-0.129089
0.227;-0.126953
0.228;-0.125122
0.229;-0.123596
0.23;-0.12207
0.231;-0.120239
0.232;-0.118713
0.233;-0.117493
0.234;-0.116272
0.235;-0.115356
0.236;-0.114746
0.237;-0.114441
0.238;-0.114441
0.239;-0.115051
0.24;-0.115356
0.241;-0.115662
0.242;-0.116272
0.243;-0.117188
0.244;-0.118713
0.245;-0.120544
0.246;-0.122681
0.247;-0.123901
0.248;-0.124512
0.249;-0.123901
0.25;-0.122986
0.251;-0.121765
0.252;-0.120544
0.253;-0.119019
0.254;-0.116882
0.255;-0.114746
0.256;-0.112
0.257;-0.108643
0.258;-0.10498
0.259;-0.101318
0.26;-0.0973511
0.261;-0.0933838
0.262;-0.0891113
0.263;-0.0848389
0.264;-0.0808716
0.265;-0.0775146
0.266;-0.0747681
0.267;-0.072937
0.268;-0.0717163
0.269;-0.0708008
0.27;-0.0701904
0.271;-0.0695801
0.272;-0.0689697
0.273;-0.0683594
0.274;-0.067749
0.275;-0.0674438
0.276;-0.0671387
0.277;-0.0668335
0.278;-0.0668335
0.279;-0.0671387
0.28;-0.067749
0.281;-0.0680542
0.282;-0.0686646
0.283;-0.0689697
0.284;-0.0689697
0.285;-0.0686646
0.286;-0.067749
0.287;-0.0668335
0.288;-0.065918
0.289;-0.0650024
0.29;-0.0646973
0.291;-0.0646973
0.292;-0.0653076
0.293;-0.065918
0.294;-0.0665283
0.295;-0.0665283
0.296;-0.0662231
0.297;-0.0656128
0.298;-0.0646973
0.299;-0.0637817
0.3;-0.0628662
0.301;-0.0622559
0.302;-0.0613403
0.303;-0.0604248
0.304;-0.0588989
0.305;-0.0567627
0.306;-0.0543213
0.307;-0.0512695
0.308;-0.0485229
0.309;-0.0457764
0.31;-0.0430298
0.311;-0.0411987
0.312;-0.0396729
0.313;-0.0384521
0.314;-0.0375366
0.315;-0.0360107
0.316;-0.0341797
0.317;-0.0320435
0.318;-0.0296021
0.319;-0.0274658
0.32;-0.0259399
0.321;-0.0244141
0.322;-0.0231934
0.323;-0.0222778
0.324;-0.0213623
0.325;-0.020752
0.326;-0.0204468
0.327;-0.0201416
0.328;-0.0201416
0.329;-0.0198364
0.33;-0.0189209
0.331;-0.017395
0.332;-0.0158691
0.333;-0.0143433
0.334;-0.0134277
0.335;-0.0125122
0.336;-0.012207
0.337;-0.0115967
0.338;-0.0109863
0.339;-0.010376
0.34;-0.00976562
0.341;-0.00854492
0.342;-0.00701904
0.343;-0.00488281
0.344;-0.00213623
0.345;0.000610352
0.346;0.00396729
0.347;0.00732422
0.348;0.0106812
0.349;0.0140381
0.35;0.0170898
0.351;0.0195312
0.352;0.0216675
0.353;0.0234985
0.354;0.0253296
0.355;0.0271606
0.356;0.0296021
0.357;0.0317383
0.358;0.0335693
0.359;0.0350952
0.36;0.0363159
0.361;0.0372314
0.362;0.0378418
0.363;0.0378418
0.364;0.0378418
0.365;0.0375366
0.366;0.0369263
0.367;0.0363159
0.368;0.0354004
0.369;0.03479
0.37;0.0344849
0.371;0.0344849
0.372;0.03479
0.373;0.0350952
0.374;0.0357056
0.375;0.0360107
0.376;0.0366211
0.377;0.0372314
0.378;0.0378418
0.379;0.0384521
0.38;0.0387573
0.381;0.0387573
0.382;0.038147
0.383;0.0372314
0.384;0.0357056
0.385;0.0341797
0.386;0.0326538
0.387;0.0311279
0.388;0.0296021
0.389;0.0283813
0.39;0.0268555
0.391;0.0247192
0.392;0.0219727
0.393;0.0192261
0.394;0.0158691
0.395;0.0131226
0.396;0.0109863
0.397;0.00946045
0.398;0.0088501
0.399;0.00946045
0.4;0.010376
0.401;0.0119019
0.402;0.0134277
0.403;0.0146484
0.404;0.015564
0.405;0.0161743
0.406;0.0164795
0.407;0.0164795
0.408;0.0164795
0.409;0.0164795
0.41;0.0164795
0.411;0.0164795
0.412;0.0161743
0.413;0.015564
0.414;0.0140381
0.415;0.0115967
0.416;0.0088501
0.417;0.00549316
0.418;0.00274658
0.419;0.000915527
0.42;-0.000305176
0.421;-0.000915527
0.422;-0.00152588
0.423;-0.00213623
0.424;-0.00305176
0.425;-0.00396729
0.426;-0.00518799
0.427;-0.00610352
0.428;-0.00701904
0.429;-0.00793457
0.43;-0.00854492
0.431;-0.00854492
0.432;-0.00823975
0.433;-0.00762939
0.434;-0.00671387
0.435;-0.00610352
0.436;-0.00610352
0.437;-0.00671387
0.438;-0.00762939
0.439;-0.0088501
0.44;-0.010376
0.441;-0.0119019
0.442;-0.0137329
0.443;-0.0152588
0.444;-0.0161743
0.445;-0.0167847
0.446;-0.0164795
0.447;-0.015564
0.448;-0.0143433
0.449;-0.0125122
0.45;-0.0109863
0.451;-0.00976562
0.452;-0.00854492
0.453;-0.00762939
0.454;-0.00701904
0.455;-0.00671387
0.456;-0.00701904
0.457;-0.00732422
0.458;-0.00793457
0.459;-0.0088501
0.46;-0.00976562
0.461;-0.0109863
0.462;-0.0125122
0.463;-0.0143433
0.464;-0.0164795
0.465;-0.0192261
0.466;-0.0222778
0.467;-0.0256348
0.468;-0.0289917
0.469;-0.0320435
0.47;-0.03479
0.471;-0.0372314
0.472;-0.0396729
0.473;-0.0418091
0.474;-0.0439453
0.475;-0.0460815
0.476;-0.0476074
0.477;-0.0494385
0.478;-0.0509644
0.479;-0.0524902
0.48;-0.0534058
0.481;-0.0540161
0.482;-0.0540161
0.483;-0.0537109
0.484;-0.0531006
0.485;-0.0524902
0.486;-0.0518799
0.487;-0.0515747
0.488;-0.0515747
0.489;-0.0518799
0.49;-0.0524902
0.491;-0.0534058
0.492;-0.0543213
0.493;-0.0549316
0.494;-0.055542
0.495;-0.0558472
0.496;-0.055542
0.497;-0.0546265
0.498;-0.0540161
0.499;-0.0537109
0.5;-0.0540161
0.501;-0.0549316
0.502;-0.0558472
0.503;-0.057373
0.504;-0.0592041
0.505;-0.0616455
0.506;-0.0646973
0.507;-0.0680542
0.508;-0.0714111
0.509;-0.0753784
0.51;-0.0793457
0.511;-0.0836182
0.512;-0.0875854
0.513;-0.0915527
0.514;-0.0946045
0.515;-0.0970459
0.516;-0.0991821
0.517;-0.101318
0.518;-0.103455
0.519;-0.105896
0.52;-0.108337
0.521;-0.109558
0.522;-0.110168
0.523;-0.109253
0.524;-0.107727
0.525;-0.105286
0.526;-0.102539
0.527;-0.0997925
0.528;-0.0967407
0.529;-0.0933838
0.53;-0.0897217
0.531;-0.0860596
0.532;-0.0823975
0.533;-0.0790405
0.534;-0.0756836
0.535;-0.0726318
0.536;-0.0701904
0.537;-0.0680542
0.538;-0.0668335
0.539;-0.0662231
0.54;-0.0662231
0.541;-0.0668335
0.542;-0.0680542
0.543;-0.0701904
0.544;-0.072937
0.545;-0.0759888
0.546;-0.0793457
0.547;-0.0823975
0.548;-0.085144
0.549;-0.0875854
0.55;-0.0897217
0.551;-0.0921631
0.552;-0.0946045
0.553;-0.0970459
0.554;-0.098877
0.555;-0.100098
0.556;-0.100098
0.557;-0.098877
0.558;-0.0970459
0.559;-0.0946045
0.56;-0.0921631
0.561;-0.0897217
0.562;-0.0872803
0.563;-0.085144
0.564;-0.0830078
0.565;-0.0808716
0.566;-0.0790405
0.567;-0.0775146
0.568;-0.0765991
0.569;-0.0756836
0.57;-0.0747681
0.571;-0.0735474
0.572;-0.0720215
0.573;-0.0708008
0.574;-0.0698853
0.575;-0.0689697
0.576;-0.0689697
0.577;-0.0692749
0.578;-0.0701904
0.579;-0.0714111
0.58;-0.0732422
0.581;-0.0753784
0.582;-0.0775146
0.583;-0.0793457
0.584;-0.0808716
0.585;-0.0823975
0.586;-0.0836182
0.587;-0.0845337
0.588;-0.085144
0.589;-0.0857544
0.59;-0.0866699
0.591;-0.0875854
0.592;-0.088501
0.593;-0.0891113
0.594;-0.0900269
0.595;-0.0906372
0.596;-0.0909424
0.597;-0.0912476
0.598;-0.0912476
0.599;-0.0915527
0.6;-0.0918579
0.601;-0.0921631
0.602;-0.0924683
0.603;-0.0927734
0.604;-0.0930786
0.605;-0.0930786
0.606;-0.0930786
0.607;-0.0924683
0.608;-0.0918579
0.609;-0.0912476
0.61;-0.0906372
0.611;-0.090332
0.612;-0.090332
0.613;-0.0912476
0.614;-0.0927734
0.615;-0.0946045
0.616;-0.0973511
0.617;-0.100708
0.618;-0.104065
0.619;-0.106812
0.62;-0.108948
0.621;-0.110474
0.622;-0.111389
0.623;-0.112305
0.624;-0.113525
0.625;-0.114746
0.626;-0.115967
0.627;-0.116882
0.628;-0.117188
0.629;-0.116272
0.63;-0.114746
0.631;-0.11261
0.632;-0.109863
0.633;-0.106506
0.634;-0.103149
0.635;-0.100098
0.636;-0.0970459
0.637;-0.0946045
0.638;-0.0921631
0.639;-0.0900269
0.64;-0.0875854
0.641;-0.0854492
0.642;-0.083313
0.643;-0.0817871
0.644;-0.0805664
0.645;-0.0802612
0.646;-0.0805664
0.647;-0.0811768
0.648;-0.0823975
0.649;-0.0842285
0.65;-0.0866699
0.651;-0.0894165
0.652;-0.0930786
0.653;-0.0970459
0.654;-0.101929
0.655;-0.107422
0.656;-0.112915
0.657;-0.118408
0.658;-0.122375
0.659;-0.125122
0.66;-0.126038
0.661;-0.125427
0.662;-0.123901
0.663;-0.121765
0.664;-0.119324
0.665;-0.117188
0.666;-0.115356
0.667;-0.113525
0.668;-0.112
0.669;-0.109863
0.67;-0.107422
0.671;-0.10376
0.672;-0.0991821
0.673;-0.0942993
0.674;-0.0897217
0.675;-0.0857544
0.676;-0.0827026
0.677;-0.0805664
0.678;-0.0793457
0.679;-0.0790405
0.68;-0.0796509
0.681;-0.0808716
0.682;-0.0827026
0.683;-0.0848389
0.684;-0.0869751
0.685;-0.0891113
0.686;-0.0915527
0.687;-0.0939941
0.688;-0.0961304
0.689;-0.0982666
0.69;-0.100403
0.691;-0.102844
0.692;-0.10498
0.693;-0.107117
0.694;-0.108337
0.695;-0.109253
0.696;-0.109558
0.697;-0.109558
0.698;-0.109863
0.699;-0.110474
0.7;-0.111084
0.701;-0.112
0.702;-0.11322
0.703;-0.114441
0.704;-0.115967
0.705;-0.117798
0.706;-0.120544
0.707;-0.123596
0.708;-0.127258
0.709;-0.13092
0.71;-0.134277
0.711;-0.136719
0.712;-0.137939
0.713;-0.13855
0.714;-0.13855
0.715;-0.138245
0.716;-0.137329
0.717;-0.135803
0.718;-0.133667
0.719;-0.131531
0.72;-0.129089
0.721;-0.126648
0.722;-0.123901
0.723;-0.121155
0.724;-0.118408
0.725;-0.115356
0.726;-0.112
0.727;-0.108643
0.728;-0.10498
0.729;-0.101013
0.73;-0.0970459
0.731;-0.0933838
0.732;-0.090332
0.733;-0.0878906
0.734;-0.0869751
0.735;-0.0866699
0.736;-0.0872803
0.737;-0.088501
0.738;-0.0897217
0.739;-0.0912476
0.74;-0.0927734
0.741;-0.093689
0.742;-0.0946045
0.743;-0.09552
0.744;-0.0961304
0.745;-0.0964355
0.746;-0.0967407
0.747;-0.0967407
0.748;-0.0967407
0.749;-0.0967407
0.75;-0.0967407
0.751;-0.0967407
0.752;-0.0967407
0.753;-0.0961304
0.754;-0.0952148
0.755;-0.093689
0.756;-0.0921631
0.757;-0.0900269
0.758;-0.0872803
0.759;-0.0839233
0.76;-0.0799561
0.761;-0.0756836
0.762;-0.0708008
0.763;-0.0662231
0.764;-0.0616455
0.765;-0.0579834
0.766;-0.0543213
0.767;-0.0509644
0.768;-0.0479126
0.769;-0.0448608
0.77;-0.0421143
0.771;-0.0396729
0.772;-0.0375366
0.773;-0.0357056
0.774;-0.0344849
0.775;-0.0335693
0.776;-0.0332642
0.777;-0.0335693
0.778;-0.0341797
0.779;-0.0350952
0.78;-0.0369263
0.781;-0.0390625
0.782;-0.0415039
0.783;-0.0442505
0.784;-0.0469971
0.785;-0.0488281
0.786;-0.0500488
0.787;-0.050354
0.788;-0.0500488
0.789;-0.0488281
0.79;-0.0469971
0.791;-0.0448608
0.792;-0.0421143
0.793;-0.0378418
0.794;-0.0323486
0.795;-0.0256348
0.796;-0.0183105
0.797;-0.0109863
0.798;-0.00427246
0.799;0.0012207
0.8;0.00579834
0.801;0.00976562
0.802;0.0137329
0.803;0.017395
0.804;0.020752
0.805;0.0241089
0.806;0.0274658
0.807;0.0305176
0.808;0.0332642
0.809;0.03479
0.81;0.0350952
0.811;0.0341797
0.812;0.0320435
0.813;0.0296021
0.814;0.0265503
0.815;0.0234985
0.816;0.0204468
0.817;0.0177002
0.818;0.0152588
0.819;0.0128174
0.82;0.010376
0.821;0.00793457
0.822;0.00579834
0.823;0.00366211
0.824;0.0012207
0.825;-0.000915527
0.826;-0.00335693
0.827;-0.00518799
0.828;-0.00732422
0.829;-0.00946045
0.83;-0.0119019
0.831;-0.0143433
0.832;-0.017395
0.833;-0.0198364
0.834;-0.0222778
0.835;-0.0244141
0.836;-0.0262451
0.837;-0.0286865
0.838;-0.0311279
0.839;-0.0335693
0.84;-0.0366211
0.841;-0.0396729
0.842;-0.0430298
0.843;-0.0466919
0.844;-0.0506592
0.845;-0.0549316
0.846;-0.0595093
0.847;-0.0640869
0.848;-0.0686646
0.849;-0.0732422
0.85;-0.0778198
0.851;-0.0823975
0.852;-0.0872803
0.853;-0.0921631
0.854;-0.0973511
0.855;-0.102844
0.856;-0.108643
0.857;-0.114136
0.858;-0.119324
0.859;-0.123901
0.86;-0.127258
0.861;-0.130005
0.862;-0.131836
0.863;-0.132751
0.864;-0.133362
0.865;-0.133362
0.866;-0.132751
0.867;-0.131226
0.868;-0.129089
0.869;-0.126648
0.87;-0.123596
0.871;-0.120239
0.872;-0.116882
0.873;-0.11322
0.874;-0.109558
0.875;-0.105591
0.876;-0.101624
0.877;-0.0979614
0.878;-0.0949097
0.879;-0.0924683
0.88;-0.0906372
0.881;-0.0891113
0.882;-0.0881958
0.883;-0.0878906
0.884;-0.0878906
0.885;-0.088501
0.886;-0.0894165
0.887;-0.0912476
0.888;-0.093689
0.889;-0.0964355
0.89;-0.0994873
0.891;-0.102234
0.892;-0.104065
0.893;-0.105591
0.894;-0.106506
0.895;-0.107117
0.896;-0.107117
0.897;-0.106812
0.898;-0.105591
0.899;-0.103149
0.9;-0.0994873
0.901;-0.0942993
0.902;-0.0878906
0.903;-0.0796509
0.904;-0.0704956
0.905;-0.0604248
0.906;-0.0494385
0.907;-0.0375366
0.908;-0.0244141
0.909;-0.0100708
0.91;0.00579834
0.911;0.0238037
0.912;0.0439453
0.913;0.0665283
0.914;0.0918579
0.915;0.120239
0.916;0.151367
0.917;0.184937
0.918;0.220947
0.919;0.259705
0.92;0.301514
0.921;0.346375
0.922;0.394897
0.923;0.447693
0.924;0.505066
0.925;0.567017
0.926;0.632629
0.927;0.701294
0.928;0.77179
0.929;0.842896
0.93;0.913391
0.931;0.982056
0.932;1.04767
0.933;1.1087
0.934;1.16394
0.935;1.21216
0.936;1.25336
0.937;1.28693
0.938;1.31195
0.939;1.32782
0.94;1.33331
0.941;1.3269
0.942;1.30737
0.943;1.27411
0.944;1.2262
0.945;1.16394
0.946;1.08826
0.947;1.00037
0.948;0.902405
0.949;0.795593
0.95;0.682373
0.951;0.56488
0.952;0.444946
0.953;0.325012
0.954;0.207214
0.955;0.0933838
0.956;-0.0146484
0.957;-0.115662
0.958;-0.209045
0.959;-0.293579
0.96;-0.368958
0.961;-0.434875
0.962;-0.490112
0.963;-0.534363
0.964;-0.567322
0.965;-0.588684
0.966;-0.598755
0.967;-0.598755
0.968;-0.589294
0.969;-0.572205
0.97;-0.548706
0.971;-0.520935
0.972;-0.490417
0.973;-0.458679
0.974;-0.426941
0.975;-0.395203
0.976;-0.364685
0.977;-0.335693
0.978;-0.308228
0.979;-0.283203
0.98;-0.26062
0.981;-0.241089
0.982;-0.224304
0.983;-0.210571
0.984;-0.19928
0.985;-0.19043
0.986;-0.1828
0.987;-0.176086
0.988;-0.169983
0.989;-0.16449
0.99;-0.159912
0.991;-0.156555
0.992;-0.154114
0.993;-0.152588
0.994;-0.151978
0.995;-0.151367
0.996;-0.150757
0.997;-0.149841
0.998;-0.148621
0.999;-0.14679
1;-0.144653
1.001;-0.142517
1.002;-0.140686
1.003;-0.139465
1.004;-0.138855
1.005;-0.138245
1.006;-0.137634
1.007;-0.136414
1.008;-0.135193
1.009;-0.133667
1.01;-0.131836
1.011;-0.130005
1.012;-0.127563
1.013;-0.124817
1.014;-0.12207
1.015;-0.119324
1.016;-0.116272
1.017;-0.113525
1.018;-0.110779
1.019;-0.108337
1.02;-0.106201
1.021;-0.104065
1.022;-0.101929
1.023;-0.100098
1.024;-0.0985718
1.025;-0.0976562
1.026;-0.0970459
1.027;-0.0970459
1.028;-0.0973511
1.029;-0.0982666
1.03;-0.0991821
1.031;-0.100403
1.032;-0.101624
1.033;-0.102539
1.034;-0.102844
1.035;-0.102844
1.036;-0.102539
1.037;-0.102539
1.038;-0.102539
1.039;-0.102539
1.04;-0.103149
1.041;-0.104065
1.042;-0.10498
1.043;-0.105591
1.044;-0.106201
1.045;-0.106506
1.046;-0.106506
1.047;-0.105896
1.048;-0.10498
1.049;-0.103455
1.05;-0.101624
1.051;-0.0991821
1.052;-0.0970459
1.053;-0.0949097
1.054;-0.0933838
1.055;-0.0921631
1.056;-0.0915527
1.057;-0.0915527
1.058;-0.0918579
1.059;-0.0915527
1.06;-0.0912476
1.061;-0.0906372
1.062;-0.0894165
1.063;-0.0878906
1.064;-0.0863647
1.065;-0.0845337
1.066;-0.0827026
1.067;-0.0817871
1.068;-0.0811768
1.069;-0.0808716
1.07;-0.0808716
1.071;-0.0805664
1.072;-0.0805664
1.073;-0.0802612
1.074;-0.0796509
1.075;-0.0787354
1.076;-0.0769043
1.077;-0.0744629
1.078;-0.071106
1.079;-0.0671387
1.08;-0.0634766
1.081;-0.0598145
1.082;-0.0561523
1.083;-0.0531006
1.084;-0.050354
1.085;-0.0482178
1.086;-0.0460815
1.087;-0.043335
1.088;-0.0402832
1.089;-0.0369263
1.09;-0.0338745
1.091;-0.0308228
1.092;-0.0283813
1.093;-0.0265503
1.094;-0.0253296
1.095;-0.0244141
1.096;-0.0238037
1.097;-0.0234985
1.098;-0.0231934
1.099;-0.0231934
1.1;-0.0228882
1.101;-0.0222778
1.102;-0.0216675
1.103;-0.020752
1.104;-0.0201416
1.105;-0.0198364
1.106;-0.0195312
1.107;-0.0195312
1.108;-0.0198364
1.109;-0.0201416
1.11;-0.020752
1.111;-0.0213623
1.112;-0.022583
1.113;-0.0241089
1.114;-0.0256348
1.115;-0.0265503
1.116;-0.0265503
1.117;-0.0256348
1.118;-0.0244141
1.119;-0.0228882
1.12;-0.0213623
1.121;-0.0198364
1.122;-0.0180054
1.123;-0.015564
1.124;-0.0128174
1.125;-0.00976562
1.126;-0.00671387
1.127;-0.00366211
1.128;-0.0012207
1.129;0.0012207
1.13;0.00366211
1.131;0.00610352
1.132;0.00823975
1.133;0.0100708
1.134;0.0115967
1.135;0.0131226
1.136;0.0146484
1.137;0.0152588
1.138;0.015564
1.139;0.0149536
1.14;0.0134277
1.141;0.0112915
1.142;0.0088501
1.143;0.00640869
1.144;0.00427246
1.145;0.00213623
1.146;0.000915527
1.147;-0.000305176
1.148;-0.0012207
1.149;-0.00244141
1.15;-0.00366211
1.151;-0.00488281
1.152;-0.00579834
1.153;-0.00610352
1.154;-0.00579834
1.155;-0.00488281
1.156;-0.00335693
1.157;-0.00152588
1.158;0.000610352
1.159;0.00244141
1.16;0.00335693
1.161;0.00305176
1.162;0.00213623
1.163;0.000915527
1.164;-0.000305176
1.165;-0.000915527
1.166;-0.0012207
1.167;-0.0012207
1.168;-0.0012207
1.169;-0.00152588
1.17;-0.00213623
1.171;-0.00335693
1.172;-0.00549316
1.173;-0.00793457
1.174;-0.0112915
1.175;-0.0149536
1.176;-0.0186157
1.177;-0.0216675
1.178;-0.0241089
1.179;-0.0256348
1.18;-0.0262451
1.181;-0.0262451
1.182;-0.0262451
1.183;-0.0256348
1.184;-0.0250244
1.185;-0.0247192
1.186;-0.0244141
1.187;-0.0234985
1.188;-0.0222778
1.189;-0.0204468
1.19;-0.0186157
1.191;-0.0170898
1.192;-0.015564
1.193;-0.0143433
1.194;-0.0134277
1.195;-0.0134277
1.196;-0.0134277
1.197;-0.0140381
1.198;-0.0146484
1.199;-0.0149536
1.2;-0.0146484
1.201;-0.0143433
1.202;-0.0140381
1.203;-0.0143433
1.204;-0.0143433
1.205;-0.0149536
1.206;-0.015564
1.207;-0.0164795
1.208;-0.017395
1.209;-0.0186157
1.21;-0.0198364
1.211;-0.0213623
1.212;-0.0228882
1.213;-0.0238037
1.214;-0.0244141
1.215;-0.0241089
1.216;-0.0231934
1.217;-0.0219727
1.218;-0.020752
1.219;-0.0198364
1.22;-0.0195312
1.221;-0.0201416
1.222;-0.0213623
1.223;-0.0231934
1.224;-0.0253296
1.225;-0.0271606
1.226;-0.0283813
1.227;-0.0286865
1.228;-0.0286865
1.229;-0.0280762
1.23;-0.027771
1.231;-0.0271606
1.232;-0.0271606
1.233;-0.0274658
1.234;-0.0283813
1.235;-0.0302124
1.236;-0.0323486
1.237;-0.0344849
1.238;-0.0369263
1.239;-0.0393677
1.24;-0.0418091
1.241;-0.0439453
1.242;-0.0460815
1.243;-0.0482178
1.244;-0.050354
1.245;-0.0524902
1.246;-0.0546265
1.247;-0.0564575
1.248;-0.0582886
1.249;-0.0601196
1.25;-0.0613403
1.251;-0.062561
1.252;-0.0637817
1.253;-0.0650024
1.254;-0.065918
1.255;-0.0665283
1.256;-0.0671387
1.257;-0.0674438
1.258;-0.067749
1.259;-0.0680542
1.26;-0.0683594
1.261;-0.0686646
1.262;-0.0689697
1.263;-0.0692749
1.264;-0.0698853
1.265;-0.071106
1.266;-0.0723267
1.267;-0.0738525
1.268;-0.0753784
1.269;-0.0769043
1.27;-0.0784302
1.271;-0.0793457
1.272;-0.0805664
1.273;-0.0814819
1.274;-0.0817871
1.275;-0.0820923
1.276;-0.0817871
1.277;-0.0811768
1.278;-0.0805664
1.279;-0.0796509
1.28;-0.0793457
1.281;-0.0787354
1.282;-0.0787354
1.283;-0.0787354
1.284;-0.0787354
1.285;-0.0787354
1.286;-0.0784302
1.287;-0.0778198
1.288;-0.0765991
1.289;-0.0750732
1.29;-0.0732422
1.291;-0.0717163
1.292;-0.0708008
1.293;-0.0701904
1.294;-0.0695801
1.295;-0.0695801
1.296;-0.0695801
1.297;-0.0701904
1.298;-0.071106
1.299;-0.0723267
1.3;-0.0741577
1.301;-0.0759888
1.302;-0.078125
1.303;-0.0802612
1.304;-0.0823975
1.305;-0.0839233
1.306;-0.0848389
1.307;-0.0854492
1.308;-0.0854492
1.309;-0.0848389
1.31;-0.0842285
1.311;-0.0836182
1.312;-0.0830078
1.313;-0.0823975
1.314;-0.0817871
1.315;-0.0805664
1.316;-0.0784302
1.317;-0.0753784
1.318;-0.0720215
1.319;-0.0680542
1.32;-0.0640869
1.321;-0.0604248
1.322;-0.057373
1.323;-0.0543213
1.324;-0.0515747
1.325;-0.0491333
1.326;-0.0466919
1.327;-0.0448608
1.328;-0.0436401
1.329;-0.0430298
1.33;-0.043335
1.331;-0.0448608
1.332;-0.0466919
1.333;-0.0494385
1.334;-0.0518799
1.335;-0.0543213
1.336;-0.0564575
1.337;-0.0579834
1.338;-0.0588989
1.339;-0.0601196
1.34;-0.0610352
1.341;-0.0622559
1.342;-0.0634766
1.343;-0.0643921
1.344;-0.0650024
1.345;-0.0656128
1.346;-0.0662231
1.347;-0.0668335
1.348;-0.0674438
1.349;-0.0680542
1.35;-0.0683594
1.351;-0.0683594
1.352;-0.0680542
1.353;-0.0674438
1.354;-0.0668335
1.355;-0.0662231
1.356;-0.0656128
1.357;-0.0656128
1.358;-0.065918
1.359;-0.0662231
1.36;-0.0668335
1.361;-0.0680542
1.362;-0.0689697
1.363;-0.0698853
1.364;-0.071106
1.365;-0.0720215
1.366;-0.0732422
1.367;-0.0741577
1.368;-0.0753784
1.369;-0.0759888
1.37;-0.0762939
1.371;-0.0765991
1.372;-0.0769043
1.373;-0.0772095
1.374;-0.078125
1.375;-0.0793457
1.376;-0.0808716
1.377;-0.0823975
1.378;-0.0836182
1.379;-0.0845337
1.38;-0.0854492
1.381;-0.0863647
1.382;-0.0869751
1.383;-0.0872803
1.384;-0.0875854
1.385;-0.0878906
1.386;-0.088501
1.387;-0.0891113
1.388;-0.090332
1.389;-0.0915527
1.39;-0.0927734
1.391;-0.093689
1.392;-0.0942993
1.393;-0.0949097
1.394;-0.0949097
1.395;-0.0946045
1.396;-0.0946045
1.397;-0.0942993
1.398;-0.0939941
1.399;-0.0939941
1.4;-0.093689
1.401;-0.0933838
1.402;-0.0930786
1.403;-0.0927734
1.404;-0.0927734
1.405;-0.0927734
1.406;-0.0930786
1.407;-0.0933838
1.408;-0.0939941
1.409;-0.0942993
1.41;-0.0949097
1.411;-0.0949097
1.412;-0.0952148
1.413;-0.09552
1.414;-0.09552
1.415;-0.0952148
1.416;-0.0946045
1.417;-0.093689
1.418;-0.0927734
1.419;-0.0915527
1.42;-0.090332
1.421;-0.0891113
1.422;-0.0878906
1.423;-0.0866699
1.424;-0.085144
1.425;-0.083313
1.426;-0.0811768
1.427;-0.0787354
1.428;-0.0759888
1.429;-0.0732422
1.43;-0.071106
1.431;-0.0695801
1.432;-0.0686646
1.433;-0.0686646
1.434;-0.0689697
1.435;-0.0695801
1.436;-0.0708008
1.437;-0.0726318
1.438;-0.0753784
1.439;-0.0784302
1.44;-0.0817871
1.441;-0.0854492
1.442;-0.0894165
1.443;-0.0933838
1.444;-0.0973511
1.445;-0.100708
1.446;-0.103455
1.447;-0.105591
1.448;-0.107422
1.449;-0.109253
1.45;-0.110168
1.451;-0.110779
1.452;-0.110168
1.453;-0.108948
1.454;-0.106506
1.455;-0.10376
1.456;-0.100403
1.457;-0.0964355
1.458;-0.0921631
1.459;-0.0875854
1.46;-0.0836182
1.461;-0.0802612
1.462;-0.0772095
1.463;-0.0744629
1.464;-0.0720215
1.465;-0.0698853
1.466;-0.067749
1.467;-0.0662231
1.468;-0.0650024
1.469;-0.0646973
1.47;-0.0650024
1.471;-0.0662231
1.472;-0.0683594
1.473;-0.0704956
1.474;-0.0726318
1.475;-0.0750732
1.476;-0.0772095
1.477;-0.0793457
1.478;-0.0811768
1.479;-0.0830078
1.48;-0.0845337
1.481;-0.0860596
1.482;-0.0872803
1.483;-0.0881958
1.484;-0.0888062
1.485;-0.0897217
1.486;-0.0909424
1.487;-0.0921631
1.488;-0.093689
1.489;-0.0946045
1.49;-0.0952148
1.491;-0.0949097
1.492;-0.0946045
1.493;-0.0942993
1.494;-0.0939941
1.495;-0.0942993
1.496;-0.0949097
1.497;-0.0952148
1.498;-0.0958252
1.499;-0.0961304
1.5;-0.0961304
1.501;-0.0958252
1.502;-0.0952148
1.503;-0.0946045
1.504;-0.0939941
1.505;-0.0933838
1.506;-0.0927734
1.507;-0.0921631
1.508;-0.0912476
1.509;-0.0900269
1.51;-0.088501
1.511;-0.0866699
1.512;-0.0845337
1.513;-0.0823975
1.514;-0.0805664
1.515;-0.0787354
1.516;-0.0765991
1.517;-0.0747681
1.518;-0.0720215
1.519;-0.0689697
1.52;-0.0650024
1.521;-0.06073
1.522;-0.0558472
1.523;-0.0509644
1.524;-0.0460815
1.525;-0.0421143
1.526;-0.0387573
1.527;-0.0357056
1.528;-0.0332642
1.529;-0.0308228
1.53;-0.0283813
1.531;-0.0259399
1.532;-0.0231934
1.533;-0.020752
1.534;-0.0186157
1.535;-0.0164795
1.536;-0.0152588
1.537;-0.0146484
1.538;-0.0146484
1.539;-0.0146484
1.54;-0.0146484
1.541;-0.0140381
1.542;-0.0131226
1.543;-0.0119019
1.544;-0.010376
1.545;-0.0088501
1.546;-0.00732422
1.547;-0.00518799
1.548;-0.00274658
1.549;0
1.55;0.00274658
1.551;0.00579834
1.552;0.0088501
1.553;0.0115967
1.554;0.0143433
1.555;0.0167847
1.556;0.0189209
1.557;0.020752
1.558;0.022583
1.559;0.0241089
1.56;0.0253296
1.561;0.0268555
1.562;0.0283813
1.563;0.0299072
1.564;0.0314331
1.565;0.0326538
1.566;0.0335693
1.567;0.0344849
1.568;0.0344849
1.569;0.0341797
1.57;0.032959
1.571;0.0317383
1.572;0.0302124
1.573;0.0289917
1.574;0.0283813
1.575;0.0283813
1.576;0.0286865
1.577;0.0289917
1.578;0.0289917
1.579;0.0283813
1.58;0.0271606
1.581;0.0256348
1.582;0.0231934
1.583;0.0198364
1.584;0.015564
1.585;0.0106812
1.586;0.00579834
1.587;0.000915527
1.588;-0.00366211
1.589;-0.00793457
1.59;-0.0119019
1.591;-0.015564
1.592;-0.0192261
1.593;-0.0231934
1.594;-0.0274658
1.595;-0.0323486
1.596;-0.0378418
1.597;-0.043335
1.598;-0.0488281
1.599;-0.0540161
1.6;-0.0585938
1.601;-0.0628662
1.602;-0.0662231
1.603;-0.0692749
1.604;-0.0726318
1.605;-0.0762939
1.606;-0.0805664
1.607;-0.0848389
1.608;-0.088501
1.609;-0.0915527
1.61;-0.0933838
1.611;-0.0946045
1.612;-0.09552
1.613;-0.0961304
1.614;-0.0964355
1.615;-0.0967407
1.616;-0.0970459
1.617;-0.0973511
1.618;-0.0973511
1.619;-0.0973511
1.62;-0.0970459
1.621;-0.0967407
1.622;-0.0964355
1.623;-0.09552
1.624;-0.0942993
1.625;-0.0927734
1.626;-0.0912476
1.627;-0.0900269
1.628;-0.0891113
1.629;-0.0891113
1.63;-0.0891113
1.631;-0.0900269
1.632;-0.0909424
1.633;-0.0927734
1.634;-0.0946045
1.635;-0.0970459
1.636;-0.0994873
1.637;-0.101929
1.638;-0.104065
1.639;-0.106201
1.64;-0.107727
1.641;-0.108948
1.642;-0.109863
1.643;-0.110168
1.644;-0.109863
1.645;-0.109253
1.646;-0.107727
1.647;-0.105591
1.648;-0.102539
1.649;-0.0994873
1.65;-0.0961304
1.651;-0.0933838
1.652;-0.0909424
1.653;-0.088501
1.654;-0.0854492
1.655;-0.0823975
1.656;-0.0787354
1.657;-0.0741577
1.658;-0.0692749
1.659;-0.0634766
1.66;-0.0570679
1.661;-0.0494385
1.662;-0.0405884
1.663;-0.0296021
1.664;-0.0170898
1.665;-0.00213623
1.666;0.0149536
1.667;0.03479
1.668;0.0579834
1.669;0.0842285
1.67;0.113831
1.671;0.147095
1.672;0.183411
1.673;0.223083
1.674;0.266418
1.675;0.313416
1.676;0.36499
1.677;0.421143
1.678;0.481873
1.679;0.54657
1.68;0.614624
1.681;0.685425
1.682;0.758057
1.683;0.831909
1.684;0.905151
1.685;0.976868
1.686;1.04523
1.687;1.10962
1.688;1.16852
1.689;1.22131
1.69;1.2674
1.691;1.30646
1.692;1.3382
1.693;1.36169
1.694;1.37634
1.695;1.38062
1.696;1.37329
1.697;1.35254
1.698;1.31805
1.699;1.26892
1.7;1.20636
1.701;1.13129
1.702;1.04492
1.703;0.948792
1.704;0.844727
1.705;0.734558
1.706;0.619812
1.707;0.502625
1.708;0.384827
1.709;0.268555
1.71;0.155029
1.711;0.0460815
1.712;-0.0570679
1.713;-0.152893
1.714;-0.240479
1.715;-0.318909
1.716;-0.387268
1.717;-0.444946
1.718;-0.492249
1.719;-0.528259
1.72;-0.553894
1.721;-0.569153
1.722;-0.574341
1.723;-0.570984
1.724;-0.559387
1.725;-0.541382
1.726;-0.518494
1.727;-0.491943
1.728;-0.462646
1.729;-0.432129
1.73;-0.401001
1.731;-0.370178
1.732;-0.340576
1.733;-0.312805
1.734;-0.286865
1.735;-0.263367
1.736;-0.24231
1.737;-0.223694
1.738;-0.207825
1.739;-0.194397
1.74;-0.183105
1.741;-0.17395
1.742;-0.16571
1.743;-0.158997
1.744;-0.153198
1.745;-0.148621
1.746;-0.144958
1.747;-0.141907
1.748;-0.139465
1.749;-0.137634
1.75;-0.136108
1.751;-0.135193
1.752;-0.135193
1.753;-0.136108
1.754;-0.137024
1.755;-0.137329
1.756;-0.137024
1.757;-0.136108
1.758;-0.134583
1.759;-0.132141
1.76;-0.129089
1.761;-0.126038
1.762;-0.123291
1.763;-0.12085
1.764;-0.118713
1.765;-0.116577
1.766;-0.113831
1.767;-0.110168
1.768;-0.106506
1.769;-0.102234
1.77;-0.0976562
1.771;-0.0930786
1.772;-0.088501
1.773;-0.0839233
1.774;-0.0796509
1.775;-0.0753784
1.776;-0.0717163
1.777;-0.0683594
1.778;-0.065918
1.779;-0.0643921
1.78;-0.0637817
1.781;-0.0640869
1.782;-0.0653076
1.783;-0.0665283
1.784;-0.0683594
1.785;-0.0698853
1.786;-0.0714111
1.787;-0.0732422
1.788;-0.0747681
1.789;-0.0762939
1.79;-0.0778198
1.791;-0.0790405
1.792;-0.0802612
1.793;-0.0817871
1.794;-0.083313
1.795;-0.0854492
1.796;-0.0878906
1.797;-0.0897217
1.798;-0.0915527
1.799;-0.0924683
1.8;-0.0924683
1.801;-0.0915527
1.802;-0.0900269
1.803;-0.0878906
1.804;-0.0857544
1.805;-0.0836182
1.806;-0.0814819
1.807;-0.0793457
1.808;-0.0765991
1.809;-0.0738525
1.81;-0.0708008
1.811;-0.0680542
1.812;-0.0650024
1.813;-0.0622559
1.814;-0.0588989
1.815;-0.055542
1.816;-0.0524902
1.817;-0.0500488
1.818;-0.0485229
1.819;-0.0479126
1.82;-0.0479126
1.821;-0.0479126
1.822;-0.0479126
1.823;-0.0473022
1.824;-0.0466919
1.825;-0.0457764
1.826;-0.0448608
1.827;-0.0442505
1.828;-0.0439453
1.829;-0.0442505
1.83;-0.0448608
1.831;-0.045166
1.832;-0.045166
1.833;-0.0442505
1.834;-0.0427246
1.835;-0.0405884
1.836;-0.038147
1.837;-0.0354004
1.838;-0.0323486
1.839;-0.0292969
1.84;-0.0265503
1.841;-0.0238037
1.842;-0.0213623
1.843;-0.0198364
1.844;-0.0186157
1.845;-0.0183105
1.846;-0.0183105
1.847;-0.0183105
1.848;-0.0183105
1.849;-0.0180054
1.85;-0.0177002
1.851;-0.017395
1.852;-0.0170898
1.853;-0.0170898
1.854;-0.017395
1.855;-0.0180054
1.856;-0.0189209
1.857;-0.0204468
1.858;-0.0216675
1.859;-0.022583
1.86;-0.022583
1.861;-0.0219727
1.862;-0.020752
1.863;-0.0192261
1.864;-0.017395
1.865;-0.0152588
1.866;-0.0134277
1.867;-0.0115967
1.868;-0.00976562
1.869;-0.00762939
1.87;-0.00549316
1.871;-0.00305176
1.872;-0.000610352
1.873;0.00152588
1.874;0.00366211
1.875;0.00610352
1.876;0.00823975
1.877;0.010376
1.878;0.0125122
1.879;0.0149536
1.88;0.0170898
1.881;0.0189209
1.882;0.020752
1.883;0.022583
1.884;0.0241089
1.885;0.0256348
1.886;0.0268555
1.887;0.0274658
1.888;0.027771
1.889;0.0280762
1.89;0.0283813
1.891;0.0286865
1.892;0.0286865
1.893;0.0283813
1.894;0.027771
1.895;0.0265503
1.896;0.0256348
1.897;0.0247192
1.898;0.0238037
1.899;0.0234985
1.9;0.0228882
1.901;0.0228882
1.902;0.0228882
1.903;0.0228882
1.904;0.0228882
1.905;0.022583
1.906;0.0222778
1.907;0.0222778
1.908;0.0222778
1.909;0.022583
1.91;0.0228882
1.911;0.0228882
1.912;0.0228882
1.913;0.0222778
1.914;0.0213623
1.915;0.0201416
1.916;0.0183105
1.917;0.0164795
1.918;0.0143433
1.919;0.012207
1.92;0.0106812
1.921;0.00915527
1.922;0.00823975
1.923;0.00701904
1.924;0.00610352
1.925;0.00488281
1.926;0.00366211
1.927;0.00244141
1.928;0.00152588
1.929;0.000915527
1.93;0.000915527
1.931;0.000610352
1.932;0.000915527
1.933;0.000915527
1.934;0.000915527
1.935;0.000915527
1.936;0.000610352
1.937;0
1.938;-0.000305176
1.939;-0.000610352
1.94;-0.000305176
1.941;-0.000305176
1.942;-0.000610352
1.943;-0.0012207
1.944;-0.00274658
1.945;-0.00427246
1.946;-0.00640869
1.947;-0.0088501
1.948;-0.0109863
1.949;-0.0131226
1.95;-0.0149536
1.951;-0.0170898
1.952;-0.0189209
1.953;-0.0210571
1.954;-0.0228882
1.955;-0.0247192
1.956;-0.0262451
1.957;-0.0271606
1.958;-0.0271606
1.959;-0.0268555
1.96;-0.0259399
1.961;-0.0250244
1.962;-0.0238037
1.963;-0.0231934
1.964;-0.022583
1.965;-0.0219727
1.966;-0.0210571
1.967;-0.0198364
1.968;-0.0183105
1.969;-0.0164795
1.97;-0.0146484
1.971;-0.012207
1.972;-0.00946045
1.973;-0.00701904
1.974;-0.00427246
1.975;-0.00244141
1.976;-0.00152588
1.977;-0.0012207
1.978;-0.00183105
1.979;-0.00305176
1.98;-0.00488281
1.981;-0.00732422
1.982;-0.00946045
1.983;-0.0115967
1.984;-0.0131226
1.985;-0.0146484
1.986;-0.0158691
1.987;-0.0170898
1.988;-0.0183105
1.989;-0.0198364
1.99;-0.0216675
1.991;-0.0234985
1.992;-0.0250244
1.993;-0.0262451
1.994;-0.0268555
1.995;-0.0268555
1.996;-0.0265503
1.997;-0.0259399
1.998;-0.0253296
1.999;-0.0250244
2;-0.0250244
2.001;-0.0253296
2.002;-0.0256348
2.003;-0.0262451
2.004;-0.0268555
2.005;-0.027771
2.006;-0.0289917
2.007;-0.0299072
2.008;-0.0311279
2.009;-0.0323486
2.01;-0.0338745
2.011;-0.0354004
2.012;-0.0372314
2.013;-0.0390625
2.014;-0.0411987
2.015;-0.0427246
2.016;-0.0445557
2.017;-0.0466919
2.018;-0.0488281
2.019;-0.0512695
2.02;-0.0534058
2.021;-0.055542
2.022;-0.0567627
2.023;-0.057373
2.024;-0.057373
2.025;-0.0567627
2.026;-0.0561523
2.027;-0.055542
2.028;-0.0549316
2.029;-0.0552368
2.03;-0.0558472
2.031;-0.057373
2.032;-0.0588989
2.033;-0.0604248
2.034;-0.0619507
2.035;-0.0631714
2.036;-0.0634766
2.037;-0.0631714
2.038;-0.0619507
2.039;-0.06073
2.04;-0.0595093
2.041;-0.0582886
2.042;-0.0570679
2.043;-0.0564575
2.044;-0.0561523
2.045;-0.0564575
2.046;-0.0567627
2.047;-0.057373
2.048;-0.0582886
2.049;-0.0588989
2.05;-0.0588989
2.051;-0.0582886
2.052;-0.057373
2.053;-0.0561523
2.054;-0.0549316
2.055;-0.0540161
2.056;-0.0534058
2.057;-0.0537109
2.058;-0.0549316
2.059;-0.0564575
2.06;-0.0585938
2.061;-0.06073
2.062;-0.062561
2.063;-0.0640869
2.064;-0.0650024
2.065;-0.0653076
2.066;-0.0646973
2.067;-0.0631714
2.068;-0.0604248
2.069;-0.057373
2.07;-0.0537109
2.071;-0.0500488
2.072;-0.0460815
2.073;-0.0424194
2.074;-0.0393677
2.075;-0.0372314
2.076;-0.0354004
2.077;-0.0344849
2.078;-0.0335693
2.079;-0.0323486
2.08;-0.0311279
2.081;-0.0296021
2.082;-0.0274658
2.083;-0.0253296
2.084;-0.0234985
2.085;-0.022583
2.086;-0.0231934
2.087;-0.0250244
2.088;-0.0274658
2.089;-0.0299072
2.09;-0.0323486
2.091;-0.0341797
2.092;-0.0354004
2.093;-0.0363159
2.094;-0.0369263
2.095;-0.0372314
2.096;-0.0375366
2.097;-0.0375366
2.098;-0.0375366
2.099;-0.0372314
2.1;-0.0363159
2.101;-0.0350952
2.102;-0.0335693
2.103;-0.0320435
2.104;-0.0305176
2.105;-0.0292969
2.106;-0.0286865
2.107;-0.0286865
2.108;-0.0296021
2.109;-0.0308228
2.11;-0.0320435
2.111;-0.0332642
2.112;-0.0341797
2.113;-0.03479
2.114;-0.0354004
2.115;-0.0363159
2.116;-0.0372314
2.117;-0.038147
2.118;-0.0393677
2.119;-0.0405884
2.12;-0.0421143
2.121;-0.0439453
2.122;-0.0457764
2.123;-0.0479126
2.124;-0.050354
2.125;-0.0527954
2.126;-0.0549316
2.127;-0.0567627
2.128;-0.0579834
2.129;-0.0582886
2.13;-0.0585938
2.131;-0.0588989
2.132;-0.0598145
2.133;-0.0613403
2.134;-0.0628662
2.135;-0.0640869
2.136;-0.0646973
2.137;-0.0650024
2.138;-0.0646973
2.139;-0.0643921
2.14;-0.0637817
2.141;-0.0631714
2.142;-0.0622559
2.143;-0.06073
2.144;-0.0588989
2.145;-0.057373
2.146;-0.0561523
2.147;-0.0558472
2.148;-0.055542
2.149;-0.0552368
2.15;-0.0543213
2.151;-0.0531006
2.152;-0.0518799
2.153;-0.0506592
2.154;-0.0497437
2.155;-0.0491333
2.156;-0.0488281
2.157;-0.0488281
2.158;-0.0488281
2.159;-0.0488281
2.16;-0.0491333
2.161;-0.0488281
2.162;-0.0479126
2.163;-0.0469971
2.164;-0.0454712
2.165;-0.0442505
2.166;-0.0430298
2.167;-0.0421143
2.168;-0.0408936
2.169;-0.0393677
2.17;-0.038147
2.171;-0.0372314
2.172;-0.0363159
2.173;-0.0360107
2.174;-0.0363159
2.175;-0.0369263
2.176;-0.0378418
2.177;-0.0387573
2.178;-0.0396729
2.179;-0.0405884
2.18;-0.0421143
2.181;-0.0439453
2.182;-0.0466919
2.183;-0.0500488
2.184;-0.0534058
2.185;-0.0567627
2.186;-0.0595093
2.187;-0.0616455
2.188;-0.0631714
2.189;-0.0637817
2.19;-0.0643921
2.191;-0.0646973
2.192;-0.0653076
2.193;-0.0656128
2.194;-0.0653076
2.195;-0.0643921
2.196;-0.0628662
2.197;-0.06073
2.198;-0.0579834
2.199;-0.0549316
2.2;-0.0518799
2.201;-0.0482178
2.202;-0.045166
2.203;-0.0421143
2.204;-0.0396729
2.205;-0.038147
2.206;-0.0375366
2.207;-0.0375366
2.208;-0.0378418
2.209;-0.038147
2.21;-0.038147
2.211;-0.0384521
2.212;-0.0384521
2.213;-0.0393677
2.214;-0.0408936
2.215;-0.0430298
2.216;-0.0454712
2.217;-0.0479126
2.218;-0.050354
2.219;-0.0521851
2.22;-0.0537109
2.221;-0.0546265
2.222;-0.055542
2.223;-0.0558472
2.224;-0.055542
2.225;-0.0552368
2.226;-0.0546265
2.227;-0.0543213
2.228;-0.0537109
2.229;-0.0534058
2.23;-0.0531006
2.231;-0.0524902
2.232;-0.0521851
2.233;-0.0518799
2.234;-0.0515747
2.235;-0.0509644
2.236;-0.0506592
2.237;-0.0506592
2.238;-0.0506592
2.239;-0.050354
2.24;-0.0497437
2.241;-0.0488281
2.242;-0.0479126
2.243;-0.0469971
2.244;-0.0460815
2.245;-0.0442505
2.246;-0.0415039
2.247;-0.0375366
2.248;-0.0335693
2.249;-0.0289917
2.25;-0.0244141
2.251;-0.0198364
2.252;-0.0152588
2.253;-0.0109863
2.254;-0.00610352
2.255;-0.0012207
2.256;0.00396729
2.257;0.00915527
2.258;0.0143433
2.259;0.0192261
2.26;0.0234985
2.261;0.0271606
2.262;0.0299072
2.263;0.0320435
2.264;0.0332642
2.265;0.0335693
2.266;0.032959
2.267;0.0314331
2.268;0.0289917
2.269;0.0256348
2.27;0.0222778
2.271;0.0189209
2.272;0.0161743
2.273;0.0140381
2.274;0.0125122
2.275;0.0112915
2.276;0.0106812
2.277;0.0106812
2.278;0.0109863
2.279;0.012207
2.28;0.0137329
2.281;0.0158691
2.282;0.0186157
2.283;0.0219727
2.284;0.0262451
2.285;0.0308228
2.286;0.0360107
2.287;0.0415039
2.288;0.0469971
2.289;0.0521851
2.29;0.0570679
2.291;0.0613403
2.292;0.0653076
2.293;0.0686646
2.294;0.0714111
2.295;0.072937
2.296;0.0738525
2.297;0.0732422
2.298;0.0714111
2.299;0.0686646
2.3;0.0653076
2.301;0.0610352
2.302;0.0561523
2.303;0.0515747
2.304;0.0466919
2.305;0.0421143
2.306;0.0372314
2.307;0.0320435
2.308;0.0271606
2.309;0.0228882
2.31;0.0186157
2.311;0.0146484
2.312;0.0109863
2.313;0.00793457
2.314;0.00579834
2.315;0.00457764
2.316;0.00427246
2.317;0.00457764
2.318;0.00457764
2.319;0.00457764
2.32;0.00457764
2.321;0.00457764
2.322;0.00457764
2.323;0.00427246
2.324;0.00274658
2.325;0.000610352
2.326;-0.00213623
2.327;-0.00488281
2.328;-0.00762939
2.329;-0.00976562
2.33;-0.0112915
2.331;-0.0128174
2.332;-0.0146484
2.333;-0.0170898
2.334;-0.0204468
2.335;-0.0247192
2.336;-0.0296021
2.337;-0.03479
2.338;-0.039978
2.339;-0.045166
2.34;-0.0497437
2.341;-0.0537109
2.342;-0.0570679
2.343;-0.0601196
2.344;-0.062561
2.345;-0.0643921
2.346;-0.0662231
2.347;-0.067749
2.348;-0.0692749
2.349;-0.0701904
2.35;-0.0708008
2.351;-0.071106
2.352;-0.071106
2.353;-0.0708008
2.354;-0.0698853
2.355;-0.0686646
2.356;-0.0665283
2.357;-0.0643921
2.358;-0.0619507
2.359;-0.0592041
2.36;-0.0564575
2.361;-0.0531006
2.362;-0.0500488
2.363;-0.0473022
2.364;-0.0448608
2.365;-0.0430298
2.366;-0.0415039
2.367;-0.039978
2.368;-0.0390625
2.369;-0.0384521
2.37;-0.0378418
2.371;-0.0375366
2.372;-0.0372314
2.373;-0.0369263
2.374;-0.0366211
2.375;-0.0369263
2.376;-0.0378418
2.377;-0.039978
2.378;-0.0427246
2.379;-0.0454712
2.38;-0.0476074
2.381;-0.0491333
2.382;-0.0491333
2.383;-0.0485229
2.384;-0.0466919
2.385;-0.0439453
2.386;-0.039978
2.387;-0.0354004
2.388;-0.0292969
2.389;-0.0222778
2.39;-0.0140381
2.391;-0.00427246
2.392;0.00701904
2.393;0.0198364
2.394;0.03479
2.395;0.0524902
2.396;0.072937
2.397;0.0964355
2.398;0.123291
2.399;0.153198
2.4;0.186157
2.401;0.221863
2.402;0.260315
2.403;0.301208
2.404;0.344238
2.405;0.390015
2.406;0.438538
2.407;0.490112
2.408;0.545044
2.409;0.603638
2.41;0.665588
2.411;0.730286
2.412;0.797729
2.413;0.866089
2.414;0.935364
2.415;1.00372
2.416;1.06995
2.417;1.13281
2.418;1.19049
2.419;1.24207
2.42;1.28723
2.421;1.32538
2.422;1.35712
2.423;1.38123
2.424;1.39679
2.425;1.40198
2.426;1.39557
2.427;1.37573
2.428;1.34155
2.429;1.29272
2.43;1.22955
2.431;1.15326
2.432;1.06537
2.433;0.967102
2.434;0.860596
2.435;0.747986
2.436;0.631104
2.437;0.51178
2.438;0.391541
2.439;0.272827
2.44;0.157471
2.441;0.0469971
2.442;-0.0567627
2.443;-0.152283
2.444;-0.238647
2.445;-0.314941
2.446;-0.380554
2.447;-0.435486
2.448;-0.478516
2.449;-0.510254
2.45;-0.530701
2.451;-0.539856
2.452;-0.53894
2.453;-0.52887
2.454;-0.510559
2.455;-0.48584
2.456;-0.456543
2.457;-0.424805
2.458;-0.391235
2.459;-0.357666
2.46;-0.325012
2.461;-0.293579
2.462;-0.264282
2.463;-0.237122
2.464;-0.212097
2.465;-0.188904
2.466;-0.168152
2.467;-0.149841
2.468;-0.133972
2.469;-0.120544
2.47;-0.109253
2.471;-0.0997925
2.472;-0.0924683
2.473;-0.0866699
2.474;-0.0823975
2.475;-0.0793457
2.476;-0.0769043
2.477;-0.0753784
2.478;-0.0738525
2.479;-0.0726318
2.48;-0.0714111
2.481;-0.0701904
2.482;-0.0686646
2.483;-0.0671387
2.484;-0.0650024
2.485;-0.0628662
2.486;-0.0610352
2.487;-0.0588989
2.488;-0.057373
2.489;-0.0561523
2.49;-0.0552368
2.491;-0.0546265
2.492;-0.0540161
2.493;-0.0531006
2.494;-0.0521851
2.495;-0.0506592
2.496;-0.0488281
2.497;-0.0463867
2.498;-0.043335
2.499;-0.0402832
2.5;-0.0372314
2.501;-0.0344849
2.502;-0.0320435
2.503;-0.0305176
2.504;-0.0299072
2.505;-0.0299072
2.506;-0.0305176
2.507;-0.0311279
2.508;-0.0320435
2.509;-0.032959
2.51;-0.0338745
2.511;-0.0344849
2.512;-0.0350952
2.513;-0.0357056
2.514;-0.0357056
2.515;-0.0360107
2.516;-0.0363159
2.517;-0.0363159
2.518;-0.0366211
2.519;-0.0366211
2.52;-0.0366211
2.521;-0.0366211
2.522;-0.0369263
2.523;-0.0366211
2.524;-0.0357056
2.525;-0.0341797
2.526;-0.0326538
2.527;-0.0311279
2.528;-0.0292969
2.529;-0.0271606
2.53;-0.0247192
2.531;-0.0222778
2.532;-0.0198364
2.533;-0.0177002
2.534;-0.0158691
2.535;-0.0143433
2.536;-0.0134277
2.537;-0.0128174
2.538;-0.0128174
2.539;-0.0128174
2.54;-0.0134277
2.541;-0.0137329
2.542;-0.0137329
2.543;-0.0140381
2.544;-0.0140381
2.545;-0.0140381
2.546;-0.0137329
2.547;-0.0134277
2.548;-0.0128174
2.549;-0.0119019
2.55;-0.0109863
2.551;-0.00976562
2.552;-0.0088501
2.553;-0.00823975
2.554;-0.00732422
2.555;-0.00640869
2.556;-0.00488281
2.557;-0.00305176
2.558;-0.0012207
2.559;0.000610352
2.56;0.00244141
2.561;0.00457764
2.562;0.00701904
2.563;0.00976562
2.564;0.0125122
2.565;0.0149536
2.566;0.0167847
2.567;0.0183105
2.568;0.0192261
2.569;0.0204468
2.57;0.0213623
2.571;0.0228882
2.572;0.0247192
2.573;0.0265503
2.574;0.0286865
2.575;0.0305176
2.576;0.0317383
2.577;0.0317383
2.578;0.0314331
2.579;0.0302124
2.58;0.0289917
2.581;0.0280762
2.582;0.0280762
2.583;0.0286865
2.584;0.0302124
2.585;0.0320435
2.586;0.0338745
2.587;0.0360107
2.588;0.0378418
2.589;0.0396729
2.59;0.0421143
2.591;0.0445557
2.592;0.0469971
2.593;0.0497437
2.594;0.0527954
2.595;0.0558472
2.596;0.0592041
2.597;0.062561
2.598;0.0665283
2.599;0.0708008
2.6;0.0753784
2.601;0.0793457
2.602;0.0830078
2.603;0.0854492
2.604;0.0872803
2.605;0.088501
2.606;0.0888062
2.607;0.0881958
2.608;0.0872803
2.609;0.0860596
2.61;0.085144
2.611;0.0839233
2.612;0.083313
2.613;0.0830078
2.614;0.0823975
2.615;0.0814819
2.616;0.0808716
2.617;0.0799561
2.618;0.0793457
2.619;0.0787354
2.62;0.0787354
2.621;0.0787354
2.622;0.0784302
2.623;0.0784302
2.624;0.078125
2.625;0.078125
2.626;0.078125
2.627;0.0778198
2.628;0.0772095
2.629;0.0759888
2.63;0.0744629
2.631;0.0726318
2.632;0.0714111
2.633;0.0698853
2.634;0.0686646
2.635;0.0674438
2.636;0.065918
2.637;0.0646973
2.638;0.0637817
2.639;0.062561
2.64;0.0616455
2.641;0.0604248
2.642;0.0592041
2.643;0.0579834
2.644;0.0564575
2.645;0.055542
2.646;0.0546265
2.647;0.0537109
2.648;0.0524902
2.649;0.0509644
2.65;0.0497437
2.651;0.0485229
2.652;0.0476074
2.653;0.0469971
2.654;0.0466919
2.655;0.0466919
2.656;0.0463867
2.657;0.0457764
2.658;0.0445557
2.659;0.0427246
2.66;0.0402832
2.661;0.0375366
2.662;0.03479
2.663;0.0323486
2.664;0.0305176
2.665;0.0289917
2.666;0.0283813
2.667;0.0283813
2.668;0.0286865
2.669;0.0289917
2.67;0.0296021
2.671;0.0299072
2.672;0.0299072
2.673;0.0296021
2.674;0.0296021
2.675;0.0296021
2.676;0.0292969
2.677;0.0289917
2.678;0.0286865
2.679;0.0280762
2.68;0.0274658
2.681;0.0268555
2.682;0.0259399
2.683;0.0250244
2.684;0.0247192
2.685;0.0250244
2.686;0.0256348
2.687;0.0262451
2.688;0.0265503
2.689;0.0265503
2.69;0.0259399
2.691;0.0250244
2.692;0.0244141
2.693;0.0238037
2.694;0.0238037
2.695;0.0244141
2.696;0.0247192
2.697;0.0253296
2.698;0.0259399
2.699;0.0262451
2.7;0.0262451
2.701;0.0262451
2.702;0.0256348
2.703;0.0250244
2.704;0.0244141
2.705;0.0234985
2.706;0.022583
2.707;0.0216675
2.708;0.020752
2.709;0.0204468
2.71;0.0198364
2.711;0.0195312
2.712;0.0189209
2.713;0.0180054
2.714;0.0170898
2.715;0.0161743
2.716;0.0158691
2.717;0.015564
2.718;0.0158691
2.719;0.0167847
2.72;0.017395
2.721;0.0183105
2.722;0.0186157
2.723;0.0186157
2.724;0.0183105
2.725;0.017395
2.726;0.0158691
2.727;0.0140381
2.728;0.0119019
2.729;0.00976562
2.73;0.00793457
2.731;0.00640869
2.732;0.00518799
2.733;0.00396729
2.734;0.00274658
2.735;0.00152588
2.736;0
2.737;-0.00183105
2.738;-0.00366211
2.739;-0.00579834
2.74;-0.00793457
2.741;-0.010376
2.742;-0.0131226
2.743;-0.0152588
2.744;-0.0167847
2.745;-0.0177002
2.746;-0.0177002
2.747;-0.0170898
2.748;-0.0167847
2.749;-0.0167847
2.75;-0.0170898
2.751;-0.017395
2.752;-0.0180054
2.753;-0.0186157
2.754;-0.0195312
2.755;-0.020752
2.756;-0.0216675
2.757;-0.022583
2.758;-0.0234985
2.759;-0.0244141
2.76;-0.0253296
2.761;-0.0262451
2.762;-0.0271606
2.763;-0.0280762
2.764;-0.0292969
2.765;-0.0305176
2.766;-0.0320435
2.767;-0.0332642
2.768;-0.0341797
2.769;-0.03479
2.77;-0.0354004
2.771;-0.0357056
2.772;-0.0363159
2.773;-0.0366211
2.774;-0.0369263
2.775;-0.0363159
2.776;-0.0350952
2.777;-0.0332642
2.778;-0.0308228
2.779;-0.0283813
2.78;-0.0265503
2.781;-0.0256348
2.782;-0.0250244
2.783;-0.0250244
2.784;-0.0250244
2.785;-0.0250244
2.786;-0.0247192
2.787;-0.0238037
2.788;-0.0228882
2.789;-0.0216675
2.79;-0.020752
2.791;-0.0201416
2.792;-0.0198364
2.793;-0.0198364
2.794;-0.0195312
2.795;-0.0192261
2.796;-0.0186157
2.797;-0.0177002
2.798;-0.0161743
2.799;-0.0143433
2.8;-0.0119019
2.801;-0.00946045
2.802;-0.00701904
2.803;-0.00518799
2.804;-0.00366211
2.805;-0.00274658
2.806;-0.00213623
2.807;-0.00213623
2.808;-0.00244141
2.809;-0.00335693
2.81;-0.00457764
2.811;-0.00610352
2.812;-0.00793457
2.813;-0.010376
2.814;-0.0125122
2.815;-0.0149536
2.816;-0.017395
2.817;-0.0195312
2.818;-0.0216675
2.819;-0.0231934
2.82;-0.0250244
2.821;-0.0262451
2.822;-0.0274658
2.823;-0.0283813
2.824;-0.0292969
2.825;-0.0299072
2.826;-0.0299072
2.827;-0.0299072
2.828;-0.0292969
2.829;-0.0289917
2.83;-0.0289917
2.831;-0.0289917
2.832;-0.0286865
2.833;-0.0289917
2.834;-0.0292969
2.835;-0.0296021
2.836;-0.0305176
2.837;-0.0317383
2.838;-0.0332642
2.839;-0.0344849
2.84;-0.0354004
2.841;-0.0357056
2.842;-0.03479
2.843;-0.0326538
2.844;-0.0299072
2.845;-0.0271606
2.846;-0.0247192
2.847;-0.0228882
2.848;-0.0216675
2.849;-0.0213623
2.85;-0.0216675
2.851;-0.0219727
2.852;-0.0222778
2.853;-0.0222778
2.854;-0.0216675
2.855;-0.0204468
2.856;-0.0195312
2.857;-0.0186157
2.858;-0.0183105
2.859;-0.0192261
2.86;-0.020752
2.861;-0.0231934
2.862;-0.0259399
2.863;-0.0289917
2.864;-0.0311279
2.865;-0.0326538
2.866;-0.0335693
2.867;-0.0335693
2.868;-0.0326538
2.869;-0.0311279
2.87;-0.0292969
2.871;-0.0274658
2.872;-0.0256348
2.873;-0.0241089
2.874;-0.0228882
2.875;-0.0213623
2.876;-0.0204468
2.877;-0.0195312
2.878;-0.0183105
2.879;-0.017395
2.88;-0.0167847
2.881;-0.0161743
2.882;-0.0158691
2.883;-0.0152588
2.884;-0.0146484
2.885;-0.0143433
2.886;-0.0143433
2.887;-0.0149536
2.888;-0.0158691
2.889;-0.017395
2.89;-0.0195312
2.891;-0.0213623
2.892;-0.0234985
2.893;-0.0253296
2.894;-0.0268555
2.895;-0.0280762
2.896;-0.0286865
2.897;-0.0289917
2.898;-0.0292969
2.899;-0.0296021
2.9;-0.0302124
2.901;-0.0308228
2.902;-0.0317383
2.903;-0.0326538
2.904;-0.0332642
2.905;-0.0335693
2.906;-0.0335693
2.907;-0.0335693
2.908;-0.0335693
2.909;-0.0338745
2.91;-0.0341797
2.911;-0.0350952
2.912;-0.0360107
2.913;-0.0369263
2.914;-0.0378418
2.915;-0.0384521
2.916;-0.0387573
2.917;-0.0390625
2.918;-0.0390625
2.919;-0.0396729
2.92;-0.0405884
2.921;-0.0415039
2.922;-0.0427246
2.923;-0.0439453
2.924;-0.0448608
2.925;-0.0457764
2.926;-0.0463867
2.927;-0.0469971
2.928;-0.0476074
2.929;-0.0482178
2.93;-0.0482178
2.931;-0.0482178
2.932;-0.0476074
2.933;-0.0463867
2.934;-0.0445557
2.935;-0.0427246
2.936;-0.0405884
2.937;-0.0390625
2.938;-0.0378418
2.939;-0.0366211
2.94;-0.0354004
2.941;-0.0341797
2.942;-0.032959
2.943;-0.0311279
2.944;-0.0289917
2.945;-0.0271606
2.946;-0.0253296
2.947;-0.0234985
2.948;-0.0222778
2.949;-0.0213623
2.95;-0.0213623
2.951;-0.0216675
2.952;-0.0222778
2.953;-0.0231934
2.954;-0.0238037
2.955;-0.0244141
2.956;-0.0247192
2.957;-0.0244141
2.958;-0.0238037
2.959;-0.0228882
2.96;-0.0222778
2.961;-0.0219727
2.962;-0.0222778
2.963;-0.0234985
2.964;-0.0256348
2.965;-0.0283813
2.966;-0.0311279
2.967;-0.0332642
2.968;-0.0344849
2.969;-0.03479
2.97;-0.0341797
2.971;-0.032959
2.972;-0.0311279
2.973;-0.0296021
2.974;-0.0280762
2.975;-0.0265503
2.976;-0.0250244
2.977;-0.0234985
2.978;-0.0216675
2.979;-0.0198364
2.98;-0.0177002
2.981;-0.0152588
2.982;-0.012207
2.983;-0.00946045
2.984;-0.00610352
2.985;-0.00335693
2.986;-0.000915527
2.987;0.000915527
2.988;0.00183105
2.989;0.00213623
2.99;0.00213623
2.991;0.00213623
2.992;0.00152588
2.993;0.000610352
2.994;-0.000915527
2.995;-0.00274658
2.996;-0.00427246
2.997;-0.00549316
2.998;-0.00671387
2.999;-0.00732422
3;-0.00762939
3.001;-0.00793457
3.002;-0.00793457
3.003;-0.00762939
3.004;-0.00640869
3.005;-0.00488281
3.006;-0.00213623
3.007;0.0012207
3.008;0.00549316
3.009;0.0100708
3.01;0.0149536
3.011;0.0201416
3.012;0.0250244
3.013;0.0296021
3.014;0.0335693
3.015;0.0372314
3.016;0.0405884
3.017;0.0436401
3.018;0.0469971
3.019;0.0497437
3.02;0.0521851
3.021;0.0537109
3.022;0.0549316
3.023;0.0558472
3.024;0.0564575
3.025;0.0564575
3.026;0.0561523
3.027;0.0549316
3.028;0.0531006
3.029;0.0509644
3.03;0.0482178
3.031;0.045166
3.032;0.0421143
3.033;0.0396729
3.034;0.0372314
3.035;0.0357056
3.036;0.03479
3.037;0.0341797
3.038;0.0344849
3.039;0.03479
3.04;0.0360107
3.041;0.038147
3.042;0.0411987
3.043;0.045166
3.044;0.0497437
3.045;0.0546265
3.046;0.0595093
3.047;0.0643921
3.048;0.0686646
3.049;0.0726318
3.05;0.0759888
3.051;0.0796509
3.052;0.083313
3.053;0.0866699
3.054;0.0900269
3.055;0.0921631
3.056;0.093689
3.057;0.093689
3.058;0.0921631
3.059;0.0891113
3.06;0.0848389
3.061;0.0799561
3.062;0.0747681
3.063;0.0695801
3.064;0.0656128
3.065;0.062561
3.066;0.0598145
3.067;0.0576782
3.068;0.0552368
3.069;0.0527954
3.07;0.0500488
3.071;0.0476074
3.072;0.0457764
3.073;0.0445557
3.074;0.0442505
3.075;0.045166
3.076;0.0466919
3.077;0.0494385
3.078;0.0524902
3.079;0.055542
3.08;0.0582886
3.081;0.0601196
3.082;0.06073
3.083;0.0601196
3.084;0.0588989
3.085;0.0570679
3.086;0.0546265
3.087;0.0515747
3.088;0.0482178
3.089;0.0442505
3.09;0.0396729
3.091;0.0344849
3.092;0.0289917
3.093;0.0231934
3.094;0.017395
3.095;0.0112915
3.096;0.00488281
3.097;-0.00183105
3.098;-0.00854492
3.099;-0.0149536
3.1;-0.0210571
3.101;-0.0268555
3.102;-0.0320435
3.103;-0.0366211
3.104;-0.0405884
3.105;-0.0439453
3.106;-0.0463867
3.107;-0.0479126
3.108;-0.0488281
3.109;-0.0491333
3.11;-0.0491333
3.111;-0.0488281
3.112;-0.0482178
3.113;-0.0473022
3.114;-0.0463867
3.115;-0.0448608
3.116;-0.0430298
3.117;-0.0405884
3.118;-0.038147
3.119;-0.0360107
3.12;-0.0338745
3.121;-0.0320435
3.122;-0.0311279
3.123;-0.0305176
3.124;-0.0302124
3.125;-0.0299072
3.126;-0.0292969
3.127;-0.0286865
3.128;-0.0280762
3.129;-0.0274658
3.13;-0.0274658
3.131;-0.0274658
3.132;-0.0280762
3.133;-0.0286865
3.134;-0.0289917
3.135;-0.0283813
3.136;-0.0274658
3.137;-0.0256348
3.138;-0.0234985
3.139;-0.0210571
3.14;-0.0183105
3.141;-0.0149536
3.142;-0.0112915
3.143;-0.00671387
3.144;-0.00213623
3.145;0.00274658
3.146;0.00732422
3.147;0.0115967
3.148;0.0161743
3.149;0.0213623
3.15;0.0268555
3.151;0.0335693
3.152;0.0408936
3.153;0.0491333
3.154;0.0592041
3.155;0.071106
3.156;0.0854492
3.157;0.101929
3.158;0.120544
3.159;0.140991
3.16;0.163269
3.161;0.187988
3.162;0.215759
3.163;0.246582
3.164;0.281677
3.165;0.321045
3.166;0.365295
3.167;0.414429
3.168;0.468445
3.169;0.527039
3.17;0.589905
3.171;0.655823
3.172;0.724487
3.173;0.795593
3.174;0.86853
3.175;0.942688
3.176;1.01654
3.177;1.08856
3.178;1.15723
3.179;1.2207
3.18;1.27808
3.181;1.32812
3.182;1.37054
3.183;1.40472
3.184;1.42975
3.185;1.4444
3.186;1.44745
3.187;1.43738
3.188;1.41296
3.189;1.3739
3.19;1.31958
3.191;1.25153
3.192;1.16974
3.193;1.07605
3.194;0.97168
3.195;0.858765
3.196;0.739136
3.197;0.615845
3.198;0.491333
3.199;0.367737
3.2;0.247192
3.201;0.131836
3.202;0.0228882
3.203;-0.0784302
3.204;-0.170593
3.205;-0.252686
3.206;-0.324097
3.207;-0.383911
3.208;-0.431519
3.209;-0.467224
3.21;-0.491333
3.211;-0.50415
3.212;-0.506287
3.213;-0.498962
3.214;-0.483093
3.215;-0.460205
3.216;-0.432434
3.217;-0.401001
3.218;-0.367432
3.219;-0.333557
3.22;-0.299683
3.221;-0.267334
3.222;-0.237122
3.223;-0.209045
3.224;-0.184021
3.225;-0.162354
3.226;-0.144348
3.227;-0.129395
3.228;-0.117493
3.229;-0.108032
3.23;-0.0997925
3.231;-0.0933838
3.232;-0.0875854
3.233;-0.0830078
3.234;-0.0787354
3.235;-0.0744629
3.236;-0.0704956
3.237;-0.0665283
3.238;-0.0631714
3.239;-0.0604248
3.24;-0.0582886
3.241;-0.0561523
3.242;-0.0543213
3.243;-0.0521851
3.244;-0.050354
3.245;-0.0488281
3.246;-0.0482178
3.247;-0.0485229
3.248;-0.0494385
3.249;-0.0506592
3.25;-0.0515747
3.251;-0.0515747
3.252;-0.0500488
3.253;-0.0469971
3.254;-0.043335
3.255;-0.0390625
3.256;-0.03479
3.257;-0.0305176
3.258;-0.0265503
3.259;-0.022583
3.26;-0.0186157
3.261;-0.0143433
3.262;-0.00915527
3.263;-0.00366211
3.264;0.00213623
3.265;0.00823975
3.266;0.0140381
3.267;0.0195312
3.268;0.0241089
3.269;0.0280762
3.27;0.0308228
3.271;0.0323486
3.272;0.0323486
3.273;0.0308228
3.274;0.027771
3.275;0.0238037
3.276;0.0189209
3.277;0.0140381
3.278;0.0088501
3.279;0.00427246
3.28;0
3.281;-0.00366211
3.282;-0.00671387
3.283;-0.00915527
3.284;-0.0109863
3.285;-0.012207
3.286;-0.0125122
3.287;-0.0125122
3.288;-0.012207
3.289;-0.0112915
3.29;-0.010376
3.291;-0.00915527
3.292;-0.00732422
3.293;-0.00518799
3.294;-0.00213623
3.295;0.0012207
3.296;0.00488281
3.297;0.00854492
3.298;0.0119019
3.299;0.015564
3.3;0.0186157
3.301;0.0213623
3.302;0.0234985
3.303;0.0253296
3.304;0.0268555
3.305;0.0280762
3.306;0.0292969
3.307;0.0305176
3.308;0.0317383
3.309;0.0332642
3.31;0.0344849
3.311;0.0357056
3.312;0.0363159
3.313;0.0366211
3.314;0.0360107
3.315;0.0350952
3.316;0.0341797
3.317;0.0332642
3.318;0.0320435
3.319;0.0308228
3.32;0.0299072
3.321;0.0289917
3.322;0.0289917
3.323;0.0296021
3.324;0.0302124
3.325;0.0311279
3.326;0.0320435
3.327;0.0335693
3.328;0.0354004
3.329;0.038147
3.33;0.0411987
3.331;0.0448608
3.332;0.0482178
3.333;0.0515747
3.334;0.0546265
3.335;0.0579834
3.336;0.0613403
3.337;0.0650024
3.338;0.0686646
3.339;0.0723267
3.34;0.0756836
3.341;0.078125
3.342;0.0799561
3.343;0.0805664
3.344;0.0799561
3.345;0.0787354
3.346;0.0769043
3.347;0.0744629
3.348;0.0717163
3.349;0.0689697
3.35;0.0665283
3.351;0.0653076
3.352;0.0653076
3.353;0.0671387
3.354;0.0698853
3.355;0.0735474
3.356;0.0775146
3.357;0.0817871
3.358;0.0863647
3.359;0.0918579
3.36;0.0973511
3.361;0.103455
3.362;0.109863
3.363;0.116272
3.364;0.122681
3.365;0.129089
3.366;0.135193
3.367;0.140991
3.368;0.146179
3.369;0.151062
3.37;0.155334
3.371;0.158691
3.372;0.160522
3.373;0.160828
3.374;0.159607
3.375;0.15686
3.376;0.153198
3.377;0.149231
3.378;0.145264
3.379;0.141907
3.38;0.138855
3.381;0.136108
3.382;0.133972
3.383;0.131836
3.384;0.13031
3.385;0.129089
3.386;0.127869
3.387;0.127258
3.388;0.127258
3.389;0.127258
3.39;0.127563
3.391;0.127563
3.392;0.127869
3.393;0.127869
3.394;0.127869
3.395;0.127869
3.396;0.127869
3.397;0.128174
3.398;0.128479
3.399;0.129395
3.4;0.130005
3.401;0.130615
3.402;0.13092
3.403;0.13092
3.404;0.13031
3.405;0.1297
3.406;0.128784
3.407;0.127869
3.408;0.127258
3.409;0.126648
3.41;0.126343
3.411;0.126038
3.412;0.126038
3.413;0.126038
3.414;0.126038
3.415;0.126038
3.416;0.125427
3.417;0.124512
3.418;0.123291
3.419;0.121765
3.42;0.119934
3.421;0.117798
3.422;0.116272
3.423;0.114746
3.424;0.113831
3.425;0.11322
3.426;0.11261
3.427;0.111389
3.428;0.110168
3.429;0.108337
3.43;0.106812
3.431;0.10498
3.432;0.103149
3.433;0.101624
3.434;0.100403
3.435;0.0991821
3.436;0.0982666
3.437;0.0970459
3.438;0.09552
3.439;0.093689
3.44;0.0909424
3.441;0.0881958
3.442;0.0848389
3.443;0.0814819
3.444;0.0790405
3.445;0.0769043
3.446;0.0756836
3.447;0.0744629
3.448;0.0738525
3.449;0.0732422
3.45;0.0726318
3.451;0.0720215
3.452;0.0717163
3.453;0.0714111
3.454;0.071106
3.455;0.0708008
3.456;0.0708008
3.457;0.0708008
3.458;0.0708008
3.459;0.0708008
3.46;0.071106
3.461;0.071106
3.462;0.0714111
3.463;0.0720215
3.464;0.0732422
3.465;0.0747681
3.466;0.0762939
3.467;0.0772095
3.468;0.078125
3.469;0.0784302
3.47;0.0784302
3.471;0.0784302
3.472;0.0787354
3.473;0.0793457
3.474;0.0796509
3.475;0.0802612
3.476;0.0808716
3.477;0.0820923
3.478;0.0830078
3.479;0.0836182
3.48;0.0839233
3.481;0.083313
3.482;0.0823975
3.483;0.0814819
3.484;0.0799561
3.485;0.0784302
3.486;0.0769043
3.487;0.0753784
3.488;0.0738525
3.489;0.0723267
3.49;0.0701904
3.491;0.067749
3.492;0.0650024
3.493;0.0619507
3.494;0.0588989
3.495;0.0558472
3.496;0.0527954
3.497;0.0500488
3.498;0.0469971
3.499;0.0445557
3.5;0.0421143
3.501;0.0396729
3.502;0.0375366
3.503;0.0354004
3.504;0.032959
3.505;0.0302124
3.506;0.0274658
3.507;0.0247192
3.508;0.0222778
3.509;0.020752
3.51;0.0195312
3.511;0.0186157
3.512;0.0180054
3.513;0.0170898
3.514;0.0158691
3.515;0.0149536
3.516;0.0140381
3.517;0.0134277
3.518;0.0137329
3.519;0.0140381
3.52;0.0149536
3.521;0.0158691
3.522;0.0167847
3.523;0.0177002
3.524;0.0180054
3.525;0.0186157
3.526;0.0189209
3.527;0.0192261
3.528;0.0192261
3.529;0.0189209
3.53;0.0183105
3.531;0.017395
3.532;0.0167847
3.533;0.0161743
3.534;0.0152588
3.535;0.0146484
3.536;0.0140381
3.537;0.0137329
3.538;0.0131226
3.539;0.0128174
3.54;0.012207
3.541;0.0115967
3.542;0.0106812
3.543;0.00946045
3.544;0.00793457
3.545;0.00610352
3.546;0.00396729
3.547;0.00213623
3.548;0.000610352
3.549;-0.000305176
3.55;0
3.551;0.000915527
3.552;0.00244141
3.553;0.00427246
3.554;0.00549316
3.555;0.00701904
3.556;0.00854492
3.557;0.00946045
3.558;0.0106812
3.559;0.0115967
3.56;0.0125122
3.561;0.0134277
3.562;0.0149536
3.563;0.0161743
3.564;0.017395
3.565;0.0186157
3.566;0.0198364
3.567;0.020752
3.568;0.0213623
3.569;0.0219727
3.57;0.0216675
3.571;0.020752
3.572;0.0195312
3.573;0.0177002
3.574;0.015564
3.575;0.0131226
3.576;0.0100708
3.577;0.00640869
3.578;0.00244141
3.579;-0.00152588
3.58;-0.00488281
3.581;-0.00762939
3.582;-0.00946045
3.583;-0.00976562
3.584;-0.00915527
3.585;-0.00793457
3.586;-0.00640869
3.587;-0.00488281
3.588;-0.00366211
3.589;-0.00274658
3.59;-0.00152588
3.591;0.000305176
3.592;0.00213623
3.593;0.00457764
3.594;0.00701904
3.595;0.00946045
3.596;0.0115967
3.597;0.0134277
3.598;0.0149536
3.599;0.0164795
3.6;0.017395
3.601;0.0177002
3.602;0.0177002
3.603;0.0167847
3.604;0.015564
3.605;0.0134277
3.606;0.0112915
3.607;0.00854492
3.608;0.00579834
3.609;0.00305176
3.61;0.000305176
3.611;-0.00183105
3.612;-0.00396729
3.613;-0.00640869
3.614;-0.00854492
3.615;-0.0106812
3.616;-0.0125122
3.617;-0.0137329
3.618;-0.0146484
3.619;-0.0152588
3.62;-0.0152588
3.621;-0.0146484
3.622;-0.0134277
3.623;-0.0119019
3.624;-0.0106812
3.625;-0.0100708
3.626;-0.00976562
3.627;-0.0100708
3.628;-0.0106812
3.629;-0.0112915
3.63;-0.012207
3.631;-0.0125122
3.632;-0.012207
3.633;-0.0115967
3.634;-0.0112915
3.635;-0.0112915
3.636;-0.0115967
3.637;-0.012207
3.638;-0.0137329
3.639;-0.0152588
3.64;-0.017395
3.641;-0.0189209
3.642;-0.0198364
3.643;-0.0201416
3.644;-0.0201416
3.645;-0.0198364
3.646;-0.0195312
3.647;-0.0192261
3.648;-0.0195312
3.649;-0.0198364
3.65;-0.0201416
3.651;-0.0201416
3.652;-0.0201416
3.653;-0.0204468
3.654;-0.020752
3.655;-0.0210571
3.656;-0.0210571
3.657;-0.0204468
3.658;-0.0198364
3.659;-0.0189209
3.66;-0.0177002
3.661;-0.0167847
3.662;-0.0158691
3.663;-0.0152588
3.664;-0.0146484
3.665;-0.0146484
3.666;-0.0149536
3.667;-0.0161743
3.668;-0.0177002
3.669;-0.0192261
3.67;-0.020752
3.671;-0.0216675
3.672;-0.0222778
3.673;-0.0222778
3.674;-0.0222778
3.675;-0.0222778
3.676;-0.0228882
3.677;-0.0244141
3.678;-0.0268555
3.679;-0.0302124
3.68;-0.0338745
3.681;-0.0372314
3.682;-0.0405884
3.683;-0.043335
3.684;-0.0454712
3.685;-0.0466919
3.686;-0.0476074
3.687;-0.0482178
3.688;-0.0485229
3.689;-0.0488281
3.69;-0.0488281
3.691;-0.0491333
3.692;-0.0491333
3.693;-0.0494385
3.694;-0.0494385
3.695;-0.0491333
3.696;-0.0482178
3.697;-0.0469971
3.698;-0.0454712
3.699;-0.0436401
3.7;-0.0415039
3.701;-0.0396729
3.702;-0.0375366
3.703;-0.0360107
3.704;-0.0344849
3.705;-0.0332642
3.706;-0.0320435
3.707;-0.0311279
3.708;-0.0305176
3.709;-0.0296021
3.71;-0.0283813
3.711;-0.0265503
3.712;-0.0247192
3.713;-0.0231934
3.714;-0.0222778
3.715;-0.0216675
3.716;-0.0210571
3.717;-0.0204468
3.718;-0.0192261
3.719;-0.017395
3.72;-0.0158691
3.721;-0.0149536
3.722;-0.0146484
3.723;-0.0149536
3.724;-0.0158691
3.725;-0.0167847
3.726;-0.0177002
3.727;-0.0186157
3.728;-0.0195312
3.729;-0.0204468
3.73;-0.0216675
3.731;-0.0231934
3.732;-0.0250244
3.733;-0.0274658
3.734;-0.0305176
3.735;-0.0344849
3.736;-0.0384521
3.737;-0.0427246
3.738;-0.0463867
3.739;-0.0488281
3.74;-0.0497437
3.741;-0.0494385
3.742;-0.0476074
3.743;-0.0454712
3.744;-0.0430298
3.745;-0.0408936
3.746;-0.0393677
3.747;-0.038147
3.748;-0.0369263
3.749;-0.0357056
3.75;-0.0344849
3.751;-0.032959
3.752;-0.0305176
3.753;-0.027771
3.754;-0.0244141
3.755;-0.020752
3.756;-0.0167847
3.757;-0.0131226
3.758;-0.00976562
3.759;-0.00732422
3.76;-0.00549316
3.761;-0.00457764
3.762;-0.00488281
3.763;-0.00579834
3.764;-0.00732422
3.765;-0.00854492
3.766;-0.00946045
3.767;-0.0100708
3.768;-0.010376
3.769;-0.0106812
3.77;-0.0109863
3.771;-0.0115967
3.772;-0.0125122
3.773;-0.0137329
3.774;-0.0152588
3.775;-0.0167847
3.776;-0.0180054
3.777;-0.0192261
3.778;-0.0201416
3.779;-0.0210571
3.78;-0.0222778
3.781;-0.0231934
3.782;-0.0247192
3.783;-0.0262451
3.784;-0.0274658
3.785;-0.0283813
3.786;-0.0292969
3.787;-0.0292969
3.788;-0.0296021
3.789;-0.0296021
3.79;-0.0302124
3.791;-0.0308228
3.792;-0.0320435
3.793;-0.0338745
3.794;-0.0363159
3.795;-0.0387573
3.796;-0.0411987
3.797;-0.0430298
3.798;-0.0445557
3.799;-0.0454712
3.8;-0.0466919
3.801;-0.0476074
3.802;-0.0479126
3.803;-0.0476074
3.804;-0.0463867
3.805;-0.045166
3.806;-0.0439453
3.807;-0.0430298
3.808;-0.0421143
3.809;-0.0402832
3.81;-0.0378418
3.811;-0.0338745
3.812;-0.0292969
3.813;-0.0244141
3.814;-0.0195312
3.815;-0.0146484
3.816;-0.0100708
3.817;-0.00579834
3.818;-0.00213623
3.819;0.0012207
3.82;0.00396729
3.821;0.00671387
3.822;0.00946045
3.823;0.0125122
3.824;0.015564
3.825;0.0186157
3.826;0.0210571
3.827;0.0231934
3.828;0.0244141
3.829;0.0253296
3.83;0.0262451
3.831;0.0271606
3.832;0.0283813
3.833;0.0299072
3.834;0.0314331
3.835;0.032959
3.836;0.03479
3.837;0.0366211
3.838;0.0390625
3.839;0.0411987
3.84;0.0436401
3.841;0.0457764
3.842;0.0473022
3.843;0.0479126
3.844;0.0482178
3.845;0.0479126
3.846;0.0476074
3.847;0.0476074
3.848;0.0479126
3.849;0.0485229
3.85;0.0491333
3.851;0.0494385
3.852;0.0497437
3.853;0.0500488
3.854;0.0506592
3.855;0.0512695
3.856;0.0518799
3.857;0.0531006
3.858;0.0549316
3.859;0.0567627
3.86;0.0585938
3.861;0.0601196
3.862;0.0616455
3.863;0.0628662
3.864;0.0634766
3.865;0.0643921
3.866;0.0653076
3.867;0.0665283
3.868;0.067749
3.869;0.0686646
3.87;0.0698853
3.871;0.0704956
3.872;0.0701904
3.873;0.0692749
3.874;0.0671387
3.875;0.0640869
3.876;0.0604248
3.877;0.0570679
3.878;0.0537109
3.879;0.050354
3.88;0.0469971
3.881;0.0436401
3.882;0.0402832
3.883;0.0369263
3.884;0.0335693
3.885;0.0305176
3.886;0.027771
3.887;0.0256348
3.888;0.0238037
3.889;0.022583
3.89;0.0210571
3.891;0.0192261
3.892;0.0170898
3.893;0.0146484
3.894;0.0125122
3.895;0.0109863
3.896;0.00976562
3.897;0.0088501
3.898;0.00793457
3.899;0.00732422
3.9;0.00701904
3.901;0.00671387
3.902;0.00610352
3.903;0.00518799
3.904;0.00366211
3.905;0.00152588
3.906;-0.000915527
3.907;-0.00396729
3.908;-0.00732422
3.909;-0.0106812
3.91;-0.0137329
3.911;-0.0170898
3.912;-0.0198364
3.913;-0.0228882
3.914;-0.0253296
3.915;-0.027771
3.916;-0.0299072
3.917;-0.0317383
3.918;-0.0332642
3.919;-0.03479
3.92;-0.0366211
3.921;-0.0384521
3.922;-0.0405884
3.923;-0.0427246
3.924;-0.0448608
3.925;-0.0466919
3.926;-0.0482178
3.927;-0.0488281
3.928;-0.0491333
3.929;-0.0488281
3.93;-0.0488281
3.931;-0.0491333
3.932;-0.0497437
3.933;-0.0506592
3.934;-0.0521851
3.935;-0.0540161
3.936;-0.0558472
3.937;-0.057373
3.938;-0.0579834
3.939;-0.0576782
3.94;-0.0567627
3.941;-0.0552368
3.942;-0.0537109
3.943;-0.0518799
3.944;-0.0500488
3.945;-0.0482178
3.946;-0.0460815
3.947;-0.0439453
3.948;-0.0415039
3.949;-0.0390625
3.95;-0.0366211
3.951;-0.0338745
3.952;-0.0314331
3.953;-0.0292969
3.954;-0.0274658
3.955;-0.0259399
3.956;-0.0241089
3.957;-0.0216675
3.958;-0.0186157
3.959;-0.0149536
3.96;-0.0106812
3.961;-0.00579834
3.962;0.000305176
3.963;0.00701904
3.964;0.0152588
3.965;0.0247192
3.966;0.0354004
3.967;0.0479126
3.968;0.062561
3.969;0.0793457
3.97;0.0991821
3.971;0.121765
3.972;0.147095
3.973;0.174866
3.974;0.205383
3.975;0.238953
3.976;0.274963
3.977;0.314331
3.978;0.357056
3.979;0.403137
3.98;0.452881
3.981;0.505981
3.982;0.562744
3.983;0.623169
3.984;0.68634
3.985;0.751953
3.986;0.819397
3.987;0.888062
3.988;0.957031
3.989;1.02448
3.99;1.08978
3.991;1.15112
3.992;1.20758
3.993;1.25824
3.994;1.30188
3.995;1.3382
3.996;1.36597
3.997;1.38367
3.998;1.38977
3.999;1.38245
4;1.36108
4.001;1.32507
4.002;1.27441
4.003;1.21033
4.004;1.13281
4.005;1.04309
4.006;0.942688
4.007;0.83313
4.008;0.715942
4.009;0.594177
4.01;0.470276
4.011;0.346985
4.012;0.226746
4.013;0.111389
4.014;0.00244141
4.015;-0.0985718
4.016;-0.190735
4.017;-0.272827
4.018;-0.343933
4.019;-0.404358
4.02;-0.452881
4.021;-0.489807
4.022;-0.514832
4.023;-0.527954
4.024;-0.529785
4.025;-0.52124
4.026;-0.50415
4.027;-0.479736
4.028;-0.449829
4.029;-0.415955
4.03;-0.379944
4.031;-0.343018
4.032;-0.306396
4.033;-0.271606
4.034;-0.239258
4.035;-0.209656
4.036;-0.183411
4.037;-0.160828
4.038;-0.141907
4.039;-0.126038
4.04;-0.113525
4.041;-0.10376
4.042;-0.0961304
4.043;-0.0906372
4.044;-0.0872803
4.045;-0.0857544
4.046;-0.0857544
4.047;-0.0866699
4.048;-0.088501
4.049;-0.090332
4.05;-0.0924683
4.051;-0.0939941
4.052;-0.0952148
4.053;-0.0961304
4.054;-0.0964355
4.055;-0.0961304
4.056;-0.0952148
4.057;-0.0933838
4.058;-0.0912476
4.059;-0.088501
4.06;-0.0857544
4.061;-0.0827026
4.062;-0.0799561
4.063;-0.0778198
4.064;-0.0753784
4.065;-0.072937
4.066;-0.0704956
4.067;-0.067749
4.068;-0.0646973
4.069;-0.0619507
4.07;-0.0595093
4.071;-0.0576782
4.072;-0.0564575
4.073;-0.0558472
4.074;-0.0558472
4.075;-0.0564575
4.076;-0.0576782
4.077;-0.0592041
4.078;-0.0613403
4.079;-0.0637817
4.08;-0.0665283
4.081;-0.0689697
4.082;-0.0708008
4.083;-0.0717163
4.084;-0.0717163
4.085;-0.0708008
4.086;-0.0698853
4.087;-0.0686646
4.088;-0.0680542
4.089;-0.0680542
4.09;-0.0680542
4.091;-0.0674438
4.092;-0.0668335
4.093;-0.0653076
4.094;-0.0637817
4.095;-0.0616455
4.096;-0.0592041
4.097;-0.0567627
4.098;-0.0540161
4.099;-0.0512695
4.1;-0.0491333
4.101;-0.0469971
4.102;-0.0454712
4.103;-0.0442505
4.104;-0.0436401
4.105;-0.0436401
4.106;-0.0445557
4.107;-0.0454712
4.108;-0.0469971
4.109;-0.0479126
4.11;-0.0482178
4.111;-0.0482178
4.112;-0.0479126
4.113;-0.0473022
4.114;-0.0469971
4.115;-0.0469971
4.116;-0.0469971
4.117;-0.0469971
4.118;-0.0466919
4.119;-0.0460815
4.12;-0.045166
4.121;-0.0439453
4.122;-0.0424194
4.123;-0.0405884
4.124;-0.0384521
4.125;-0.0363159
4.126;-0.0338745
4.127;-0.0308228
4.128;-0.0280762
4.129;-0.0256348
4.13;-0.0234985
4.131;-0.0216675
4.132;-0.0204468
4.133;-0.0192261
4.134;-0.0186157
4.135;-0.0177002
4.136;-0.0164795
4.137;-0.0149536
4.138;-0.0131226
4.139;-0.0109863
4.14;-0.00915527
4.141;-0.00732422
4.142;-0.00579834
4.143;-0.00488281
4.144;-0.00396729
4.145;-0.00274658
4.146;-0.000610352
4.147;0.00213623
4.148;0.00518799
4.149;0.00823975
4.15;0.0106812
4.151;0.0128174
4.152;0.0146484
4.153;0.0158691
4.154;0.0170898
4.155;0.0183105
4.156;0.0195312
4.157;0.0204468
4.158;0.0210571
4.159;0.0210571
4.16;0.0204468
4.161;0.0195312
4.162;0.0186157
4.163;0.0180054
4.164;0.0177002
4.165;0.0177002
4.166;0.0180054
4.167;0.0180054
4.168;0.0186157
4.169;0.0198364
4.17;0.0216675
4.171;0.0238037
4.172;0.0265503
4.173;0.0292969
4.174;0.0320435
4.175;0.0344849
4.176;0.0369263
4.177;0.0393677
4.178;0.0421143
4.179;0.0448608
4.18;0.0479126
4.181;0.0509644
4.182;0.0543213
4.183;0.057373
4.184;0.0598145
4.185;0.0622559
4.186;0.0643921
4.187;0.0656128
4.188;0.0665283
4.189;0.0665283
4.19;0.0662231
4.191;0.0653076
4.192;0.0643921
4.193;0.0634766
4.194;0.0628662
4.195;0.0622559
4.196;0.0622559
4.197;0.0622559
4.198;0.0619507
4.199;0.0616455
4.2;0.0604248
4.201;0.0595093
4.202;0.0582886
4.203;0.0576782
4.204;0.057373
4.205;0.057373
4.206;0.057373
4.207;0.0570679
4.208;0.0567627
4.209;0.0558472
4.21;0.0546265
4.211;0.0531006
4.212;0.0512695
4.213;0.0494385
4.214;0.0482178
4.215;0.0479126
4.216;0.0488281
4.217;0.0509644
4.218;0.0534058
4.219;0.0561523
4.22;0.0582886
4.221;0.0601196
4.222;0.0610352
4.223;0.0613403
4.224;0.0613403
4.225;0.0613403
4.226;0.0619507
4.227;0.0631714
4.228;0.0643921
4.229;0.065918
4.23;0.0668335
4.231;0.0671387
4.232;0.0665283
4.233;0.0650024
4.234;0.0628662
4.235;0.0601196
4.236;0.0576782
4.237;0.0552368
4.238;0.0527954
4.239;0.0500488
4.24;0.0473022
4.241;0.0439453
4.242;0.0402832
4.243;0.0360107
4.244;0.0317383
4.245;0.0271606
4.246;0.0231934
4.247;0.0201416
4.248;0.0177002
4.249;0.0158691
4.25;0.0149536
4.251;0.0143433
4.252;0.0140381
4.253;0.0143433
4.254;0.0146484
4.255;0.0149536
4.256;0.0152588
4.257;0.015564
4.258;0.0164795
4.259;0.0170898
4.26;0.0177002
4.261;0.0180054
4.262;0.0177002
4.263;0.017395
4.264;0.017395
4.265;0.0177002
4.266;0.0183105
4.267;0.0186157
4.268;0.0186157
4.269;0.0180054
4.27;0.0170898
4.271;0.0158691
4.272;0.0146484
4.273;0.0134277
4.274;0.0125122
4.275;0.0115967
4.276;0.0106812
4.277;0.0100708
4.278;0.00915527
4.279;0.00854492
4.28;0.00823975
4.281;0.00823975
4.282;0.0088501
4.283;0.00946045
4.284;0.0106812
4.285;0.0115967
4.286;0.0125122
4.287;0.0128174
4.288;0.0128174
4.289;0.012207
4.29;0.0112915
4.291;0.00976562
4.292;0.00854492
4.293;0.00732422
4.294;0.00579834
4.295;0.00427246
4.296;0.00244141
4.297;0.000305176
4.298;-0.00152588
4.299;-0.00305176
4.3;-0.00457764
4.301;-0.00579834
4.302;-0.00701904
4.303;-0.00793457
4.304;-0.00854492
4.305;-0.00854492
4.306;-0.00854492
4.307;-0.00793457
4.308;-0.00732422
4.309;-0.00640869
4.31;-0.00579834
4.311;-0.00518799
4.312;-0.00488281
4.313;-0.00488281
4.314;-0.00579834
4.315;-0.00701904
4.316;-0.00915527
4.317;-0.0112915
4.318;-0.0140381
4.319;-0.0164795
4.32;-0.0186157
4.321;-0.020752
4.322;-0.0228882
4.323;-0.0250244
4.324;-0.0274658
4.325;-0.0305176
4.326;-0.0335693
4.327;-0.0372314
4.328;-0.0405884
4.329;-0.0439453
4.33;-0.0463867
4.331;-0.0479126
4.332;-0.0482178
4.333;-0.0476074
4.334;-0.0466919
4.335;-0.045166
4.336;-0.0436401
4.337;-0.0421143
4.338;-0.0411987
4.339;-0.0402832
4.34;-0.0402832
4.341;-0.039978
4.342;-0.0402832
4.343;-0.0402832
4.344;-0.0405884
4.345;-0.0415039
4.346;-0.0430298
4.347;-0.045166
4.348;-0.0473022
4.349;-0.0488281
4.35;-0.0491333
4.351;-0.0491333
4.352;-0.0485229
4.353;-0.0482178
4.354;-0.0488281
4.355;-0.0500488
4.356;-0.0521851
4.357;-0.0543213
4.358;-0.0561523
4.359;-0.0567627
4.36;-0.0567627
4.361;-0.0558472
4.362;-0.0543213
4.363;-0.0521851
4.364;-0.0494385
4.365;-0.0463867
4.366;-0.043335
4.367;-0.0402832
4.368;-0.0375366
4.369;-0.0350952
4.37;-0.0332642
4.371;-0.0317383
4.372;-0.0305176
4.373;-0.0296021
4.374;-0.0286865
4.375;-0.027771
4.376;-0.0265503
4.377;-0.0256348
4.378;-0.0250244
4.379;-0.0250244
4.38;-0.0250244
4.381;-0.0259399
4.382;-0.0271606
4.383;-0.0286865
4.384;-0.0308228
4.385;-0.0332642
4.386;-0.0360107
4.387;-0.0390625
4.388;-0.0424194
4.389;-0.0454712
4.39;-0.0476074
4.391;-0.0494385
4.392;-0.0506592
4.393;-0.0512695
4.394;-0.0518799
4.395;-0.0524902
4.396;-0.0524902
4.397;-0.0521851
4.398;-0.0515747
4.399;-0.0509644
4.4;-0.0500488
4.401;-0.0497437
4.402;-0.0491333
4.403;-0.0491333
4.404;-0.0491333
4.405;-0.0494385
4.406;-0.0494385
4.407;-0.0497437
4.408;-0.050354
4.409;-0.0512695
4.41;-0.0524902
4.411;-0.0546265
4.412;-0.0570679
4.413;-0.0598145
4.414;-0.0628662
4.415;-0.0656128
4.416;-0.067749
4.417;-0.0695801
4.418;-0.0708008
4.419;-0.071106
4.42;-0.0708008
4.421;-0.0698853
4.422;-0.0692749
4.423;-0.0683594
4.424;-0.0674438
4.425;-0.0662231
4.426;-0.0650024
4.427;-0.0631714
4.428;-0.0613403
4.429;-0.0592041
4.43;-0.0570679
4.431;-0.0552368
4.432;-0.0537109
4.433;-0.0527954
4.434;-0.0518799
4.435;-0.0512695
4.436;-0.0509644
4.437;-0.0509644
4.438;-0.0512695
4.439;-0.0521851
4.44;-0.0531006
4.441;-0.0543213
4.442;-0.0552368
4.443;-0.0558472
4.444;-0.0561523
4.445;-0.0558472
4.446;-0.0552368
4.447;-0.0546265
4.448;-0.0540161
4.449;-0.0534058
4.45;-0.0531006
4.451;-0.0527954
4.452;-0.0521851
4.453;-0.0515747
4.454;-0.050354
4.455;-0.0494385
4.456;-0.0482178
4.457;-0.0469971
4.458;-0.0460815
4.459;-0.0454712
4.46;-0.0457764
4.461;-0.0466919
4.462;-0.0482178
4.463;-0.0497437
4.464;-0.0518799
4.465;-0.0540161
4.466;-0.0561523
4.467;-0.0588989
4.468;-0.0616455
4.469;-0.0643921
4.47;-0.0668335
4.471;-0.0692749
4.472;-0.071106
4.473;-0.0723267
4.474;-0.0732422
4.475;-0.0732422
4.476;-0.072937
4.477;-0.0723267
4.478;-0.071106
4.479;-0.0695801
4.48;-0.0680542
4.481;-0.0662231
4.482;-0.0643921
4.483;-0.062561
4.484;-0.06073
4.485;-0.0592041
4.486;-0.0579834
4.487;-0.0570679
4.488;-0.0564575
4.489;-0.0561523
4.49;-0.0558472
4.491;-0.0552368
4.492;-0.0546265
4.493;-0.0540161
4.494;-0.0537109
4.495;-0.0540161
4.496;-0.0552368
4.497;-0.0570679
4.498;-0.0592041
4.499;-0.0619507
4.5;-0.0650024
4.501;-0.0686646
4.502;-0.0720215
4.503;-0.0753784
4.504;-0.078125
4.505;-0.0796509
4.506;-0.0802612
4.507;-0.0799561
4.508;-0.0784302
4.509;-0.0765991
4.51;-0.0747681
4.511;-0.0726318
4.512;-0.0708008
4.513;-0.0692749
4.514;-0.0683594
4.515;-0.067749
4.516;-0.0674438
4.517;-0.0662231
4.518;-0.0643921
4.519;-0.0616455
4.52;-0.0582886
4.521;-0.0552368
4.522;-0.0521851
4.523;-0.0497437
4.524;-0.0476074
4.525;-0.0460815
4.526;-0.0454712
4.527;-0.0454712
4.528;-0.0457764
4.529;-0.0463867
4.53;-0.0473022
4.531;-0.0479126
4.532;-0.0488281
4.533;-0.0497437
4.534;-0.0506592
4.535;-0.0521851
4.536;-0.0540161
4.537;-0.0558472
4.538;-0.0582886
4.539;-0.06073
4.54;-0.0628662
4.541;-0.0650024
4.542;-0.0668335
4.543;-0.0680542
4.544;-0.0689697
4.545;-0.0695801
4.546;-0.0701904
4.547;-0.0708008
4.548;-0.0714111
4.549;-0.0717163
4.55;-0.0720215
4.551;-0.0717163
4.552;-0.071106
4.553;-0.0704956
4.554;-0.0692749
4.555;-0.0680542
4.556;-0.0665283
4.557;-0.0646973
4.558;-0.0631714
4.559;-0.0613403
4.56;-0.0598145
4.561;-0.0582886
4.562;-0.057373
4.563;-0.0567627
4.564;-0.0561523
4.565;-0.0558472
4.566;-0.0558472
4.567;-0.0558472
4.568;-0.0561523
4.569;-0.0564575
4.57;-0.057373
4.571;-0.0585938
4.572;-0.0598145
4.573;-0.0613403
4.574;-0.0634766
4.575;-0.0653076
4.576;-0.0671387
4.577;-0.0686646
4.578;-0.0692749
4.579;-0.0695801
4.58;-0.0692749
4.581;-0.0689697
4.582;-0.0683594
4.583;-0.0671387
4.584;-0.0656128
4.585;-0.0634766
4.586;-0.0613403
4.587;-0.0585938
4.588;-0.0558472
4.589;-0.0527954
4.59;-0.0497437
4.591;-0.0466919
4.592;-0.0439453
4.593;-0.0418091
4.594;-0.0402832
4.595;-0.0393677
4.596;-0.0390625
4.597;-0.0393677
4.598;-0.039978
4.599;-0.0408936
4.6;-0.0421143
4.601;-0.043335
4.602;-0.0442505
4.603;-0.045166
4.604;-0.0454712
4.605;-0.0460815
4.606;-0.0466919
4.607;-0.0473022
4.608;-0.0482178
4.609;-0.0488281
4.61;-0.0494385
4.611;-0.0494385
4.612;-0.0494385
4.613;-0.0488281
4.614;-0.0482178
4.615;-0.0476074
4.616;-0.0466919
4.617;-0.0457764
4.618;-0.045166
4.619;-0.0448608
4.62;-0.045166
4.621;-0.0457764
4.622;-0.0463867
4.623;-0.0463867
4.624;-0.0463867
4.625;-0.0457764
4.626;-0.0454712
4.627;-0.0454712
4.628;-0.0460815
4.629;-0.0473022
4.63;-0.0482178
4.631;-0.0491333
4.632;-0.0497437
4.633;-0.0497437
4.634;-0.0494385
4.635;-0.0485229
4.636;-0.0469971
4.637;-0.0454712
4.638;-0.0436401
4.639;-0.0421143
4.64;-0.0402832
4.641;-0.0387573
4.642;-0.0369263
4.643;-0.0350952
4.644;-0.0332642
4.645;-0.0311279
4.646;-0.0286865
4.647;-0.0256348
4.648;-0.0222778
4.649;-0.0186157
4.65;-0.0146484
4.651;-0.0106812
4.652;-0.00671387
4.653;-0.00274658
4.654;0.000915527
4.655;0.00427246
4.656;0.00732422
4.657;0.0100708
4.658;0.0128174
4.659;0.015564
4.66;0.0180054
4.661;0.0198364
4.662;0.0213623
4.663;0.022583
4.664;0.0238037
4.665;0.0247192
4.666;0.0250244
4.667;0.0247192
4.668;0.0234985
4.669;0.0216675
4.67;0.0192261
4.671;0.0161743
4.672;0.0134277
4.673;0.0112915
4.674;0.00976562
4.675;0.00976562
4.676;0.0109863
4.677;0.0134277
4.678;0.0167847
4.679;0.0204468
4.68;0.0238037
4.681;0.0268555
4.682;0.0296021
4.683;0.0323486
4.684;0.03479
4.685;0.0375366
4.686;0.0396729
4.687;0.0411987
4.688;0.0424194
4.689;0.0427246
4.69;0.0430298
4.691;0.0430298
4.692;0.0436401
4.693;0.0445557
4.694;0.045166
4.695;0.045166
4.696;0.0448608
4.697;0.0442505
4.698;0.043335
4.699;0.0427246
4.7;0.0418091
4.701;0.0411987
4.702;0.0408936
4.703;0.0402832
4.704;0.039978
4.705;0.0396729
4.706;0.039978
4.707;0.0405884
4.708;0.0415039
4.709;0.0424194
4.71;0.0439453
4.711;0.045166
4.712;0.0463867
4.713;0.0476074
4.714;0.0479126
4.715;0.0476074
4.716;0.0463867
4.717;0.0442505
4.718;0.0415039
4.719;0.0378418
4.72;0.0332642
4.721;0.0280762
4.722;0.0228882
4.723;0.017395
4.724;0.012207
4.725;0.00701904
4.726;0.00244141
4.727;-0.00213623
4.728;-0.00671387
4.729;-0.0115967
4.73;-0.0167847
4.731;-0.0228882
4.732;-0.0286865
4.733;-0.0341797
4.734;-0.0393677
4.735;-0.0442505
4.736;-0.0491333
4.737;-0.0537109
4.738;-0.0579834
4.739;-0.0616455
4.74;-0.0643921
4.741;-0.0662231
4.742;-0.067749
4.743;-0.0683594
4.744;-0.0686646
4.745;-0.0689697
4.746;-0.0692749
4.747;-0.0692749
4.748;-0.0689697
4.749;-0.0683594
4.75;-0.0668335
4.751;-0.0650024
4.752;-0.0628662
4.753;-0.0604248
4.754;-0.0579834
4.755;-0.0558472
4.756;-0.0543213
4.757;-0.0527954
4.758;-0.0515747
4.759;-0.0506592
4.76;-0.0500488
4.761;-0.0494385
4.762;-0.0491333
4.763;-0.0491333
4.764;-0.0494385
4.765;-0.0500488
4.766;-0.0509644
4.767;-0.0521851
4.768;-0.0537109
4.769;-0.0558472
4.77;-0.0579834
4.771;-0.0601196
4.772;-0.0616455
4.773;-0.062561
4.774;-0.0622559
4.775;-0.0610352
4.776;-0.0595093
4.777;-0.0576782
4.778;-0.055542
4.779;-0.0531006
4.78;-0.0500488
4.781;-0.0463867
4.782;-0.0415039
4.783;-0.0360107
4.784;-0.0296021
4.785;-0.0219727
4.786;-0.0137329
4.787;-0.00457764
4.788;0.00579834
4.789;0.017395
4.79;0.0308228
4.791;0.0460815
4.792;0.0637817
4.793;0.0839233
4.794;0.106812
4.795;0.132751
4.796;0.161743
4.797;0.194092
4.798;0.228882
4.799;0.266418
4.8;0.306396
4.801;0.348816
4.802;0.394592
4.803;0.443726
4.804;0.497131
4.805;0.555115
4.806;0.617676
4.807;0.683594
4.808;0.752563
4.809;0.823059
4.81;0.894165
4.811;0.964355
4.812;1.03271
4.813;1.09741
4.814;1.15784
4.815;1.21246
4.816;1.26038
4.817;1.30157
4.818;1.33484
4.819;1.35956
4.82;1.3739
4.821;1.37634
4.822;1.36597
4.823;1.34186
4.824;1.30371
4.825;1.25214
4.826;1.18744
4.827;1.10992
4.828;1.02051
4.829;0.920715
4.83;0.812073
4.831;0.696411
4.832;0.576172
4.833;0.454102
4.834;0.332336
4.835;0.213318
4.836;0.0985718
4.837;-0.00946045
4.838;-0.110168
4.839;-0.202026
4.84;-0.284119
4.841;-0.354919
4.842;-0.414124
4.843;-0.461426
4.844;-0.496826
4.845;-0.52063
4.846;-0.533142
4.847;-0.534973
4.848;-0.527344
4.849;-0.511169
4.85;-0.488281
4.851;-0.460205
4.852;-0.428772
4.853;-0.395203
4.854;-0.361633
4.855;-0.328369
4.856;-0.296631
4.857;-0.267029
4.858;-0.239563
4.859;-0.215149
4.86;-0.193787
4.861;-0.175781
4.862;-0.160828
4.863;-0.148926
4.864;-0.138855
4.865;-0.130615
4.866;-0.123901
4.867;-0.118713
4.868;-0.114746
4.869;-0.111084
4.87;-0.108032
4.871;-0.105286
4.872;-0.102234
4.873;-0.0991821
4.874;-0.0961304
4.875;-0.0933838
4.876;-0.0909424
4.877;-0.0881958
4.878;-0.0857544
4.879;-0.083313
4.88;-0.0808716
4.881;-0.0787354
4.882;-0.0775146
4.883;-0.0769043
4.884;-0.0765991
4.885;-0.0769043
4.886;-0.0775146
4.887;-0.0778198
4.888;-0.0775146
4.889;-0.0772095
4.89;-0.0762939
4.891;-0.0753784
4.892;-0.0744629
4.893;-0.0732422
4.894;-0.0720215
4.895;-0.071106
4.896;-0.0695801
4.897;-0.0680542
4.898;-0.0656128
4.899;-0.0631714
4.9;-0.0601196
4.901;-0.0576782
4.902;-0.0558472
4.903;-0.0552368
4.904;-0.0552368
4.905;-0.0558472
4.906;-0.0570679
4.907;-0.0582886
4.908;-0.0592041
4.909;-0.0601196
4.91;-0.06073
4.911;-0.0613403
4.912;-0.0616455
4.913;-0.0616455
4.914;-0.0619507
4.915;-0.0619507
4.916;-0.0616455
4.917;-0.0616455
4.918;-0.0613403
4.919;-0.0604248
4.92;-0.0588989
4.921;-0.0570679
4.922;-0.0546265
4.923;-0.0515747
4.924;-0.0482178
4.925;-0.0448608
4.926;-0.0418091
4.927;-0.0390625
4.928;-0.0372314
4.929;-0.0357056
4.93;-0.03479
4.931;-0.0344849
4.932;-0.0341797
4.933;-0.0338745
4.934;-0.0335693
4.935;-0.032959
4.936;-0.0326538
4.937;-0.0323486
4.938;-0.0320435
4.939;-0.0320435
4.94;-0.0320435
4.941;-0.0323486
4.942;-0.0323486
4.943;-0.0323486
4.944;-0.0323486
4.945;-0.0323486
4.946;-0.0323486
4.947;-0.0320435
4.948;-0.0317383
4.949;-0.0314331
4.95;-0.0308228
4.951;-0.0305176
4.952;-0.0305176
4.953;-0.0308228
4.954;-0.0308228
4.955;-0.0305176
4.956;-0.0296021
4.957;-0.0283813
4.958;-0.0271606
4.959;-0.0256348
4.96;-0.0241089
4.961;-0.0228882
4.962;-0.0216675
4.963;-0.0204468
4.964;-0.0189209
4.965;-0.0167847
4.966;-0.0143433
4.967;-0.0112915
4.968;-0.00854492
4.969;-0.00610352
4.97;-0.00457764
4.971;-0.00335693
4.972;-0.00274658
4.973;-0.00244141
4.974;-0.00183105
4.975;-0.0012207
4.976;-0.000610352
4.977;0.000610352
4.978;0.00213623
4.979;0.00366211
4.98;0.00518799
4.981;0.00640869
4.982;0.00762939
4.983;0.00915527
4.984;0.0109863
4.985;0.0134277
4.986;0.0161743
4.987;0.0192261
4.988;0.022583
4.989;0.0259399
4.99;0.0292969
4.991;0.0323486
4.992;0.0350952
4.993;0.0378418
4.994;0.039978
4.995;0.0418091
4.996;0.0436401
4.997;0.0454712
4.998;0.0469971
4.999;0.0482178
5;0.0491333
5.001;0.0494385
5.002;0.0491333
5.003;0.0482178
5.004;0.0473022
5.005;0.0460815
5.006;0.0448608
5.007;0.0442505
5.008;0.0445557
5.009;0.0454712
5.01;0.0466919
5.011;0.0482178
5.012;0.0497437
5.013;0.0512695
5.014;0.0524902
5.015;0.0534058
5.016;0.0540161
5.017;0.0543213
5.018;0.0549316
5.019;0.055542
5.02;0.0564575
5.021;0.057373
5.022;0.0582886
5.023;0.0588989
5.024;0.0588989
5.025;0.0582886
5.026;0.0570679
5.027;0.0549316
5.028;0.0521851
5.029;0.0491333
5.03;0.0466919
5.031;0.0448608
5.032;0.0442505
5.033;0.0442505
5.034;0.0448608
5.035;0.045166
5.036;0.0454712
5.037;0.0457764
5.038;0.0466919
5.039;0.0473022
5.04;0.0482178
5.041;0.0494385
5.042;0.0509644
5.043;0.0531006
5.044;0.0561523
5.045;0.0592041
5.046;0.0619507
5.047;0.0643921
5.048;0.0656128
5.049;0.0662231
5.05;0.065918
5.051;0.0653076
5.052;0.0646973
5.053;0.0637817
5.054;0.0631714
5.055;0.062561
5.056;0.0616455
5.057;0.0604248
5.058;0.0588989
5.059;0.0564575
5.06;0.0537109
5.061;0.0506592
5.062;0.0469971
5.063;0.0430298
5.064;0.0387573
5.065;0.0344849
5.066;0.0299072
5.067;0.0256348
5.068;0.0213623
5.069;0.0177002
5.07;0.0146484
5.071;0.0125122
5.072;0.0112915
5.073;0.0109863
5.074;0.0112915
5.075;0.0119019
5.076;0.0125122
5.077;0.0134277
5.078;0.0143433
5.079;0.015564
5.08;0.0170898
5.081;0.0189209
5.082;0.0213623
5.083;0.0244141
5.084;0.0271606
5.085;0.0292969
5.086;0.0314331
5.087;0.0326538
5.088;0.0335693
5.089;0.0338745
5.09;0.0335693
5.091;0.0323486
5.092;0.0302124
5.093;0.0271606
5.094;0.0231934
5.095;0.0186157
5.096;0.0137329
5.097;0.00915527
5.098;0.00457764
5.099;0.000610352
5.1;-0.00335693
5.101;-0.00701904
5.102;-0.010376
5.103;-0.0140381
5.104;-0.0170898
5.105;-0.0201416
5.106;-0.022583
5.107;-0.0241089
5.108;-0.0244141
5.109;-0.0234985
5.11;-0.0216675
5.111;-0.0195312
5.112;-0.017395
5.113;-0.0152588
5.114;-0.0131226
5.115;-0.0109863
5.116;-0.0088501
5.117;-0.00701904
5.118;-0.00518799
5.119;-0.00396729
5.12;-0.00244141
5.121;-0.00152588
5.122;-0.000610352
5.123;-0.000305176
5.124;-0.000610352
5.125;-0.00152588
5.126;-0.00244141
5.127;-0.00396729
5.128;-0.00579834
5.129;-0.00793457
5.13;-0.010376
5.131;-0.0125122
5.132;-0.0146484
5.133;-0.0167847
5.134;-0.0186157
5.135;-0.020752
5.136;-0.0231934
5.137;-0.0259399
5.138;-0.0289917
5.139;-0.0323486
5.14;-0.0357056
5.141;-0.0390625
5.142;-0.0418091
5.143;-0.0442505
5.144;-0.0463867
5.145;-0.0485229
5.146;-0.050354
5.147;-0.0524902
5.148;-0.0543213
5.149;-0.0561523
5.15;-0.057373
5.151;-0.0582886
5.152;-0.0588989
5.153;-0.0595093
5.154;-0.0601196
5.155;-0.0604248
5.156;-0.06073
5.157;-0.0610352
5.158;-0.06073
5.159;-0.0604248
5.16;-0.0595093
5.161;-0.0582886
5.162;-0.0567627
5.163;-0.0546265
5.164;-0.0524902
5.165;-0.050354
5.166;-0.0488281
5.167;-0.0479126
5.168;-0.0473022
5.169;-0.0473022
5.17;-0.0473022
5.171;-0.0476074
5.172;-0.0485229
5.173;-0.0497437
5.174;-0.0518799
5.175;-0.0543213
5.176;-0.057373
5.177;-0.0601196
5.178;-0.062561
5.179;-0.0643921
5.18;-0.065918
5.181;-0.0671387
5.182;-0.0680542
5.183;-0.0686646
5.184;-0.0686646
5.185;-0.0683594
5.186;-0.0674438
5.187;-0.0665283
5.188;-0.0653076
5.189;-0.0637817
5.19;-0.0619507
5.191;-0.0604248
5.192;-0.0585938
5.193;-0.0561523
5.194;-0.0540161
5.195;-0.0515747
5.196;-0.0494385
5.197;-0.0479126
5.198;-0.0469971
5.199;-0.0463867
5.2;-0.0466919
5.201;-0.0473022
5.202;-0.0482178
5.203;-0.0491333
5.204;-0.0500488
5.205;-0.050354
5.206;-0.0506592
5.207;-0.0509644
5.208;-0.0518799
5.209;-0.0531006
5.21;-0.0546265
5.211;-0.0561523
5.212;-0.057373
5.213;-0.0579834
5.214;-0.0582886
5.215;-0.0579834
5.216;-0.057373
5.217;-0.0567627
5.218;-0.0564575
5.219;-0.0558472
5.22;-0.0552368
5.221;-0.0549316
5.222;-0.0552368
5.223;-0.0558472
5.224;-0.0564575
5.225;-0.0567627
5.226;-0.0570679
5.227;-0.0576782
5.228;-0.0582886
5.229;-0.0592041
5.23;-0.0604248
5.231;-0.0616455
5.232;-0.062561
5.233;-0.0637817
5.234;-0.0653076
5.235;-0.0668335
5.236;-0.0683594
5.237;-0.0692749
5.238;-0.0692749
5.239;-0.0686646
5.24;-0.067749
5.241;-0.0668335
5.242;-0.0662231
5.243;-0.065918
5.244;-0.0662231
5.245;-0.0668335
5.246;-0.0680542
5.247;-0.0689697
5.248;-0.0698853
5.249;-0.0701904
5.25;-0.0701904
5.251;-0.0695801
5.252;-0.0686646
5.253;-0.067749
5.254;-0.0671387
5.255;-0.0665283
5.256;-0.0662231
5.257;-0.0662231
5.258;-0.0668335
5.259;-0.067749
5.26;-0.0692749
5.261;-0.0714111
5.262;-0.0732422
5.263;-0.0750732
5.264;-0.0762939
5.265;-0.0772095
5.266;-0.0775146
5.267;-0.0772095
5.268;-0.0765991
5.269;-0.0759888
5.27;-0.0753784
5.271;-0.0750732
5.272;-0.0750732
5.273;-0.0756836
5.274;-0.0762939
5.275;-0.0765991
5.276;-0.0765991
5.277;-0.0762939
5.278;-0.0753784
5.279;-0.0744629
5.28;-0.0732422
5.281;-0.0720215
5.282;-0.071106
5.283;-0.0701904
5.284;-0.0698853
5.285;-0.0695801
5.286;-0.0698853
5.287;-0.0701904
5.288;-0.071106
5.289;-0.0720215
5.29;-0.0732422
5.291;-0.0744629
5.292;-0.0756836
5.293;-0.0765991
5.294;-0.0775146
5.295;-0.0778198
5.296;-0.078125
5.297;-0.0784302
5.298;-0.0793457
5.299;-0.0802612
5.3;-0.0814819
5.301;-0.0827026
5.302;-0.0839233
5.303;-0.085144
5.304;-0.0860596
5.305;-0.0866699
5.306;-0.0869751
5.307;-0.0866699
5.308;-0.0863647
5.309;-0.0860596
5.31;-0.0857544
5.311;-0.0860596
5.312;-0.0863647
5.313;-0.0872803
5.314;-0.0881958
5.315;-0.0897217
5.316;-0.0912476
5.317;-0.0927734
5.318;-0.0942993
5.319;-0.0952148
5.32;-0.09552
5.321;-0.0958252
5.322;-0.0961304
5.323;-0.0964355
5.324;-0.0970459
5.325;-0.0979614
5.326;-0.098877
5.327;-0.100098
5.328;-0.101318
5.329;-0.102539
5.33;-0.10437
5.331;-0.105896
5.332;-0.107117
5.333;-0.108337
5.334;-0.108948
5.335;-0.109863
5.336;-0.110168
5.337;-0.110474
5.338;-0.110168
5.339;-0.109863
5.34;-0.109253
5.341;-0.109253
5.342;-0.109253
5.343;-0.109863
5.344;-0.110474
5.345;-0.111084
5.346;-0.111389
5.347;-0.111694
5.348;-0.111694
5.349;-0.111694
5.35;-0.110474
5.351;-0.108643
5.352;-0.106201
5.353;-0.103455
5.354;-0.101013
5.355;-0.098877
5.356;-0.0973511
5.357;-0.0958252
5.358;-0.0942993
5.359;-0.0933838
5.36;-0.0921631
5.361;-0.0909424
5.362;-0.0891113
5.363;-0.0866699
5.364;-0.083313
5.365;-0.0799561
5.366;-0.0765991
5.367;-0.0735474
5.368;-0.071106
5.369;-0.0689697
5.37;-0.0671387
5.371;-0.065918
5.372;-0.0650024
5.373;-0.0643921
5.374;-0.0646973
5.375;-0.065918
5.376;-0.067749
5.377;-0.0704956
5.378;-0.0732422
5.379;-0.0765991
5.38;-0.0799561
5.381;-0.0830078
5.382;-0.0860596
5.383;-0.0891113
5.384;-0.0921631
5.385;-0.0952148
5.386;-0.0979614
5.387;-0.100708
5.388;-0.102234
5.389;-0.103149
5.39;-0.103149
5.391;-0.102234
5.392;-0.101013
5.393;-0.0994873
5.394;-0.0979614
5.395;-0.0958252
5.396;-0.0927734
5.397;-0.0888062
5.398;-0.0845337
5.399;-0.0796509
5.4;-0.0750732
5.401;-0.0708008
5.402;-0.0674438
5.403;-0.0650024
5.404;-0.0634766
5.405;-0.0628662
5.406;-0.0628662
5.407;-0.0634766
5.408;-0.0640869
5.409;-0.0650024
5.41;-0.0656128
5.411;-0.0665283
5.412;-0.0671387
5.413;-0.0680542
5.414;-0.0689697
5.415;-0.0698853
5.416;-0.0708008
5.417;-0.071106
5.418;-0.071106
5.419;-0.0708008
5.42;-0.0695801
5.421;-0.0680542
5.422;-0.0662231
5.423;-0.0646973
5.424;-0.0631714
5.425;-0.0616455
5.426;-0.0601196
5.427;-0.0592041
5.428;-0.0582886
5.429;-0.0576782
5.43;-0.0576782
5.431;-0.0579834
5.432;-0.0585938
5.433;-0.0598145
5.434;-0.0610352
5.435;-0.062561
5.436;-0.0640869
5.437;-0.065918
5.438;-0.0680542
5.439;-0.0701904
5.44;-0.0726318
5.441;-0.0747681
5.442;-0.0765991
5.443;-0.078125
5.444;-0.0790405
5.445;-0.0799561
5.446;-0.0805664
5.447;-0.0808716
5.448;-0.0814819
5.449;-0.0814819
5.45;-0.0811768
5.451;-0.0799561
5.452;-0.0778198
5.453;-0.0750732
5.454;-0.0714111
5.455;-0.0674438
5.456;-0.0631714
5.457;-0.0588989
5.458;-0.0546265
5.459;-0.050354
5.46;-0.0460815
5.461;-0.0415039
5.462;-0.0369263
5.463;-0.0320435
5.464;-0.0262451
5.465;-0.0198364
5.466;-0.0134277
5.467;-0.00732422
5.468;-0.00152588
5.469;0.00335693
5.47;0.00732422
5.471;0.010376
5.472;0.0131226
5.473;0.015564
5.474;0.0177002
5.475;0.0195312
5.476;0.0210571
5.477;0.0219727
5.478;0.0219727
5.479;0.0213623
5.48;0.0201416
5.481;0.0189209
5.482;0.017395
5.483;0.0161743
5.484;0.0152588
5.485;0.0149536
5.486;0.0149536
5.487;0.0152588
5.488;0.0161743
5.489;0.0177002
5.49;0.0192261
5.491;0.0210571
5.492;0.0231934
5.493;0.0256348
5.494;0.0283813
5.495;0.0314331
5.496;0.0344849
5.497;0.0369263
5.498;0.0390625
5.499;0.0405884
5.5;0.0424194
5.501;0.0445557
5.502;0.0466919
5.503;0.0488281
5.504;0.0512695
5.505;0.0531006
5.506;0.0540161
5.507;0.0540161
5.508;0.0531006
5.509;0.0518799
5.51;0.0500488
5.511;0.0479126
5.512;0.0457764
5.513;0.043335
5.514;0.0408936
5.515;0.0387573
5.516;0.0366211
5.517;0.0344849
5.518;0.0326538
5.519;0.0302124
5.52;0.0271606
5.521;0.0234985
5.522;0.0192261
5.523;0.0152588
5.524;0.0119019
5.525;0.00946045
5.526;0.00762939
5.527;0.00579834
5.528;0.00396729
5.529;0.00152588
5.53;-0.00152588
5.531;-0.00488281
5.532;-0.00823975
5.533;-0.0112915
5.534;-0.0140381
5.535;-0.0167847
5.536;-0.0198364
5.537;-0.0228882
5.538;-0.0256348
5.539;-0.0280762
5.54;-0.0305176
5.541;-0.032959
5.542;-0.0350952
5.543;-0.0369263
5.544;-0.0387573
5.545;-0.0405884
5.546;-0.0424194
5.547;-0.0448608
5.548;-0.0476074
5.549;-0.0500488
5.55;-0.0518799
5.551;-0.0531006
5.552;-0.0534058
5.553;-0.0534058
5.554;-0.0527954
5.555;-0.0527954
5.556;-0.0527954
5.557;-0.0527954
5.558;-0.0527954
5.559;-0.0524902
5.56;-0.0521851
5.561;-0.0512695
5.562;-0.0497437
5.563;-0.0479126
5.564;-0.0457764
5.565;-0.043335
5.566;-0.0411987
5.567;-0.039978
5.568;-0.0390625
5.569;-0.0387573
5.57;-0.0387573
5.571;-0.0393677
5.572;-0.039978
5.573;-0.0402832
5.574;-0.0405884
5.575;-0.0408936
5.576;-0.0411987
5.577;-0.0421143
5.578;-0.0430298
5.579;-0.0442505
5.58;-0.0454712
5.581;-0.0469971
5.582;-0.0485229
5.583;-0.0497437
5.584;-0.0506592
5.585;-0.0509644
5.586;-0.0509644
5.587;-0.050354
5.588;-0.0494385
5.589;-0.0482178
5.59;-0.0463867
5.591;-0.0439453
5.592;-0.0411987
5.593;-0.038147
5.594;-0.0341797
5.595;-0.0296021
5.596;-0.0238037
5.597;-0.0170898
5.598;-0.0088501
5.599;0.000915527
5.6;0.0119019
5.601;0.0244141
5.602;0.0390625
5.603;0.0558472
5.604;0.0750732
5.605;0.0970459
5.606;0.12207
5.607;0.150146
5.608;0.180664
5.609;0.214233
5.61;0.250244
5.611;0.289001
5.612;0.331726
5.613;0.378113
5.614;0.429077
5.615;0.484009
5.616;0.542908
5.617;0.605774
5.618;0.671387
5.619;0.738831
5.62;0.8078
5.621;0.877075
5.622;0.945129
5.623;1.01135
5.624;1.07452
5.625;1.13403
5.626;1.18835
5.627;1.23688
5.628;1.27869
5.629;1.31287
5.63;1.3382
5.631;1.35376
5.632;1.35803
5.633;1.34918
5.634;1.3269
5.635;1.29028
5.636;1.23932
5.637;1.17462
5.638;1.0965
5.639;1.00677
5.64;0.906372
5.641;0.797119
5.642;0.681152
5.643;0.560913
5.644;0.438538
5.645;0.316467
5.646;0.196533
5.647;0.0811768
5.648;-0.0283813
5.649;-0.13031
5.65;-0.223694
5.651;-0.307617
5.652;-0.381775
5.653;-0.444641
5.654;-0.495911
5.655;-0.534973
5.656;-0.562439
5.657;-0.578003
5.658;-0.582886
5.659;-0.577087
5.66;-0.562134
5.661;-0.539246
5.662;-0.510559
5.663;-0.4776
5.664;-0.441895
5.665;-0.405273
5.666;-0.369263
5.667;-0.334473
5.668;-0.302124
5.669;-0.272522
5.67;-0.246582
5.671;-0.223999
5.672;-0.204468
5.673;-0.187988
5.674;-0.17395
5.675;-0.162048
5.676;-0.152283
5.677;-0.144043
5.678;-0.137634
5.679;-0.132446
5.68;-0.128784
5.681;-0.126038
5.682;-0.124207
5.683;-0.123291
5.684;-0.122986
5.685;-0.123901
5.686;-0.125122
5.687;-0.126648
5.688;-0.127869
5.689;-0.129089
5.69;-0.1297
5.691;-0.1297
5.692;-0.128784
5.693;-0.127563
5.694;-0.126038
5.695;-0.124817
5.696;-0.123901
5.697;-0.123291
5.698;-0.123291
5.699;-0.122986
5.7;-0.122681
5.701;-0.12146
5.702;-0.119629
5.703;-0.117188
5.704;-0.114441
5.705;-0.111694
5.706;-0.109253
5.707;-0.107117
5.708;-0.105591
5.709;-0.104065
5.71;-0.102844
5.711;-0.102234
5.712;-0.101624
5.713;-0.101624
5.714;-0.102539
5.715;-0.104065
5.716;-0.105896
5.717;-0.108337
5.718;-0.111084
5.719;-0.113831
5.72;-0.116882
5.721;-0.119629
5.722;-0.122375
5.723;-0.124512
5.724;-0.126038
5.725;-0.126648
5.726;-0.126648
5.727;-0.126038
5.728;-0.124817
5.729;-0.122986
5.73;-0.120544
5.731;-0.117798
5.732;-0.115051
5.733;-0.112305
5.734;-0.109253
5.735;-0.106506
5.736;-0.103455
5.737;-0.100403
5.738;-0.0973511
5.739;-0.0949097
5.74;-0.0930786
5.741;-0.0921631
5.742;-0.0915527
5.743;-0.0918579
5.744;-0.0921631
5.745;-0.0924683
5.746;-0.0933838
5.747;-0.0939941
5.748;-0.0949097
5.749;-0.0952148
5.75;-0.09552
5.751;-0.0952148
5.752;-0.0952148
5.753;-0.0949097
5.754;-0.0942993
5.755;-0.093689
5.756;-0.0933838
5.757;-0.0927734
5.758;-0.0927734
5.759;-0.0921631
5.76;-0.0915527
5.761;-0.0909424
5.762;-0.0897217
5.763;-0.088501
5.764;-0.0872803
5.765;-0.0860596
5.766;-0.0848389
5.767;-0.0836182
5.768;-0.0827026
5.769;-0.0827026
5.77;-0.0830078
5.771;-0.0836182
5.772;-0.0842285
5.773;-0.0845337
5.774;-0.0842285
5.775;-0.0836182
5.776;-0.0823975
5.777;-0.0808716
5.778;-0.0790405
5.779;-0.0772095
5.78;-0.0750732
5.781;-0.072937
5.782;-0.0714111
5.783;-0.0695801
5.784;-0.0680542
5.785;-0.0665283
5.786;-0.0646973
5.787;-0.0628662
5.788;-0.0604248
5.789;-0.0582886
5.79;-0.0561523
5.791;-0.0543213
5.792;-0.0524902
5.793;-0.0509644
5.794;-0.0497437
5.795;-0.0488281
5.796;-0.0479126
5.797;-0.0473022
5.798;-0.0469971
5.799;-0.0457764
5.8;-0.0445557
5.801;-0.0424194
5.802;-0.0402832
5.803;-0.038147
5.804;-0.0366211
5.805;-0.0360107
5.806;-0.0363159
5.807;-0.0369263
5.808;-0.0375366
5.809;-0.0378418
5.81;-0.0372314
5.811;-0.0360107
5.812;-0.0341797
5.813;-0.0323486
5.814;-0.0302124
5.815;-0.0280762
5.816;-0.0262451
5.817;-0.0247192
5.818;-0.0234985
5.819;-0.022583
5.82;-0.0219727
5.821;-0.0213623
5.822;-0.0210571
5.823;-0.020752
5.824;-0.0204468
5.825;-0.0201416
5.826;-0.0192261
5.827;-0.0180054
5.828;-0.0161743
5.829;-0.0140381
5.83;-0.012207
5.831;-0.010376
5.832;-0.00915527
5.833;-0.00823975
5.834;-0.00823975
5.835;-0.00823975
5.836;-0.0088501
5.837;-0.00915527
5.838;-0.00976562
5.839;-0.0100708
5.84;-0.010376
5.841;-0.0106812
5.842;-0.0106812
5.843;-0.0109863
5.844;-0.0109863
5.845;-0.0115967
5.846;-0.0119019
5.847;-0.0125122
5.848;-0.0134277
5.849;-0.0143433
5.85;-0.015564
5.851;-0.0167847
5.852;-0.0177002
5.853;-0.0183105
5.854;-0.0183105
5.855;-0.0177002
5.856;-0.0167847
5.857;-0.0161743
5.858;-0.0152588
5.859;-0.0146484
5.86;-0.0137329
5.861;-0.0131226
5.862;-0.012207
5.863;-0.0112915
5.864;-0.0100708
5.865;-0.00915527
5.866;-0.0088501
5.867;-0.0088501
5.868;-0.00915527
5.869;-0.0100708
5.87;-0.0112915
5.871;-0.0128174
5.872;-0.0146484
5.873;-0.0167847
5.874;-0.0195312
5.875;-0.022583
5.876;-0.0259399
5.877;-0.0299072
5.878;-0.0341797
5.879;-0.038147
5.88;-0.0418091
5.881;-0.045166
5.882;-0.0485229
5.883;-0.0521851
5.884;-0.0558472
5.885;-0.0598145
5.886;-0.0637817
5.887;-0.0674438
5.888;-0.071106
5.889;-0.0744629
5.89;-0.0769043
5.891;-0.078125
5.892;-0.0784302
5.893;-0.0778198
5.894;-0.0765991
5.895;-0.0750732
5.896;-0.0732422
5.897;-0.0714111
5.898;-0.0698853
5.899;-0.0680542
5.9;-0.0665283
5.901;-0.0646973
5.902;-0.0622559
5.903;-0.0595093
5.904;-0.0567627
5.905;-0.0540161
5.906;-0.0512695
5.907;-0.0488281
5.908;-0.0463867
5.909;-0.0448608
5.91;-0.0442505
5.911;-0.0442505
5.912;-0.0448608
5.913;-0.0463867
5.914;-0.0479126
5.915;-0.0494385
5.916;-0.0509644
5.917;-0.0518799
5.918;-0.0524902
5.919;-0.0531006
5.92;-0.0537109
5.921;-0.0543213
5.922;-0.0549316
5.923;-0.055542
5.924;-0.0558472
5.925;-0.0558472
5.926;-0.055542
5.927;-0.055542
5.928;-0.0558472
5.929;-0.0564575
5.93;-0.0567627
5.931;-0.0570679
5.932;-0.057373
5.933;-0.0579834
5.934;-0.0585938
5.935;-0.0595093
5.936;-0.06073
5.937;-0.0622559
5.938;-0.0643921
5.939;-0.0668335
5.94;-0.0698853
5.941;-0.0732422
5.942;-0.0772095
5.943;-0.0808716
5.944;-0.0842285
5.945;-0.0866699
5.946;-0.0878906
5.947;-0.0878906
5.948;-0.0872803
5.949;-0.0860596
5.95;-0.0848389
5.951;-0.083313
5.952;-0.0820923
5.953;-0.0808716
5.954;-0.0793457
5.955;-0.0778198
5.956;-0.0756836
5.957;-0.0732422
5.958;-0.071106
5.959;-0.0692749
5.96;-0.067749
5.961;-0.0665283
5.962;-0.065918
5.963;-0.0662231
5.964;-0.0668335
5.965;-0.067749
5.966;-0.0692749
5.967;-0.0714111
5.968;-0.0741577
5.969;-0.0775146
5.97;-0.0817871
5.971;-0.0860596
5.972;-0.090332
5.973;-0.0946045
5.974;-0.0985718
5.975;-0.102234
5.976;-0.105286
5.977;-0.108032
5.978;-0.110474
5.979;-0.112305
5.98;-0.114441
5.981;-0.115967
5.982;-0.117188
5.983;-0.118103
5.984;-0.118408
5.985;-0.118408
5.986;-0.118103
5.987;-0.117798
5.988;-0.117188
5.989;-0.116577
5.99;-0.115967
5.991;-0.115051
5.992;-0.113831
5.993;-0.11261
5.994;-0.111084
5.995;-0.109558
5.996;-0.108032
5.997;-0.106812
5.998;-0.105591
5.999;-0.10437
6;-0.103149
6.001;-0.102539
6.002;-0.101624
6.003;-0.101318
6.004;-0.100708
6.005;-0.100098
6.006;-0.100098
6.007;-0.100708
6.008;-0.101624
6.009;-0.102844
6.01;-0.104675
6.011;-0.106812
6.012;-0.108643
6.013;-0.110474
6.014;-0.111694
6.015;-0.112305
6.016;-0.11261
6.017;-0.112305
6.018;-0.112
6.019;-0.111389
6.02;-0.110779
6.021;-0.110168
6.022;-0.109863
6.023;-0.108948
6.024;-0.107727
6.025;-0.105896
6.026;-0.10376
6.027;-0.101013
6.028;-0.0976562
6.029;-0.0946045
6.03;-0.0915527
6.031;-0.0888062
6.032;-0.0866699
6.033;-0.0848389
6.034;-0.0839233
6.035;-0.0839233
6.036;-0.085144
6.037;-0.0875854
6.038;-0.0909424
6.039;-0.0949097
6.04;-0.098877
6.041;-0.102234
6.042;-0.104065
6.043;-0.10498
6.044;-0.105286
6.045;-0.105286
6.046;-0.105896
6.047;-0.106812
6.048;-0.108337
6.049;-0.109863
6.05;-0.110779
6.051;-0.111389
6.052;-0.110779
6.053;-0.108948
6.054;-0.106506
6.055;-0.10376
6.056;-0.100708
6.057;-0.0979614
6.058;-0.09552
6.059;-0.0930786
6.06;-0.0909424
6.061;-0.0888062
6.062;-0.0866699
6.063;-0.0839233
6.064;-0.0811768
6.065;-0.0787354
6.066;-0.0762939
6.067;-0.0741577
6.068;-0.0726318
6.069;-0.071106
6.07;-0.0695801
6.071;-0.0680542
6.072;-0.0668335
6.073;-0.0653076
6.074;-0.0643921
6.075;-0.0637817
6.076;-0.0631714
6.077;-0.062561
6.078;-0.0622559
6.079;-0.0616455
6.08;-0.0616455
6.081;-0.0622559
6.082;-0.0631714
6.083;-0.0643921
6.084;-0.0656128
6.085;-0.0674438
6.086;-0.0695801
6.087;-0.0717163
6.088;-0.0741577
6.089;-0.0762939
6.09;-0.0784302
6.091;-0.0805664
6.092;-0.0830078
6.093;-0.0857544
6.094;-0.0878906
6.095;-0.0900269
6.096;-0.0915527
6.097;-0.0927734
6.098;-0.093689
6.099;-0.0946045
6.1;-0.09552
6.101;-0.0961304
6.102;-0.0964355
6.103;-0.0964355
6.104;-0.0964355
6.105;-0.0961304
6.106;-0.0958252
6.107;-0.0958252
6.108;-0.0961304
6.109;-0.0967407
6.11;-0.0973511
6.111;-0.0979614
6.112;-0.0979614
6.113;-0.0976562
6.114;-0.0970459
6.115;-0.0961304
6.116;-0.0952148
6.117;-0.0946045
6.118;-0.0942993
6.119;-0.0939941
6.12;-0.093689
6.121;-0.0933838
6.122;-0.0933838
6.123;-0.0933838
6.124;-0.093689
6.125;-0.093689
6.126;-0.093689
6.127;-0.093689
6.128;-0.093689
6.129;-0.093689
6.13;-0.093689
6.131;-0.093689
6.132;-0.0933838
6.133;-0.0930786
6.134;-0.0930786
6.135;-0.0927734
6.136;-0.0927734
6.137;-0.0924683
6.138;-0.0921631
6.139;-0.0915527
6.14;-0.0909424
6.141;-0.0897217
6.142;-0.0888062
6.143;-0.0878906
6.144;-0.0872803
6.145;-0.0872803
6.146;-0.0881958
6.147;-0.0894165
6.148;-0.0909424
6.149;-0.0921631
6.15;-0.0933838
6.151;-0.0939941
6.152;-0.0942993
6.153;-0.0942993
6.154;-0.0946045
6.155;-0.0952148
6.156;-0.0964355
6.157;-0.0982666
6.158;-0.100403
6.159;-0.102844
6.16;-0.105591
6.161;-0.107727
6.162;-0.109863
6.163;-0.112
6.164;-0.114136
6.165;-0.116272
6.166;-0.117798
6.167;-0.118408
6.168;-0.118103
6.169;-0.117188
6.17;-0.114746
6.171;-0.111389
6.172;-0.107117
6.173;-0.102844
6.174;-0.0985718
6.175;-0.0946045
6.176;-0.0909424
6.177;-0.0872803
6.178;-0.0830078
6.179;-0.0790405
6.18;-0.0750732
6.181;-0.0714111
6.182;-0.0686646
6.183;-0.065918
6.184;-0.0637817
6.185;-0.0619507
6.186;-0.0604248
6.187;-0.0592041
6.188;-0.0588989
6.189;-0.0592041
6.19;-0.0601196
6.191;-0.0622559
6.192;-0.0653076
6.193;-0.0689697
6.194;-0.0723267
6.195;-0.0753784
6.196;-0.0778198
6.197;-0.0799561
6.198;-0.0811768
6.199;-0.0823975
6.2;-0.083313
6.201;-0.0848389
6.202;-0.0863647
6.203;-0.0881958
6.204;-0.0900269
6.205;-0.0918579
6.206;-0.0933838
6.207;-0.0949097
6.208;-0.0961304
6.209;-0.0973511
6.21;-0.0982666
6.211;-0.0994873
6.212;-0.101013
6.213;-0.103149
6.214;-0.105591
6.215;-0.108643
6.216;-0.111694
6.217;-0.114746
6.218;-0.117188
6.219;-0.118408
6.22;-0.119019
6.221;-0.119019
6.222;-0.118713
6.223;-0.117798
6.224;-0.116882
6.225;-0.115662
6.226;-0.113831
6.227;-0.111694
6.228;-0.109253
6.229;-0.106506
6.23;-0.103149
6.231;-0.0991821
6.232;-0.0952148
6.233;-0.0909424
6.234;-0.0869751
6.235;-0.0830078
6.236;-0.0793457
6.237;-0.0756836
6.238;-0.0723267
6.239;-0.0692749
6.24;-0.0665283
6.241;-0.0643921
6.242;-0.0628662
6.243;-0.0619507
6.244;-0.0610352
6.245;-0.0604248
6.246;-0.0601196
6.247;-0.0598145
6.248;-0.0601196
6.249;-0.0610352
6.25;-0.0622559
6.251;-0.0634766
6.252;-0.0643921
6.253;-0.0650024
6.254;-0.0650024
6.255;-0.0643921
6.256;-0.0634766
6.257;-0.0628662
6.258;-0.0622559
6.259;-0.0616455
6.26;-0.06073
6.261;-0.0595093
6.262;-0.0579834
6.263;-0.0564575
6.264;-0.0543213
6.265;-0.0515747
6.266;-0.0482178
6.267;-0.0439453
6.268;-0.0393677
6.269;-0.03479
6.27;-0.0299072
6.271;-0.0253296
6.272;-0.0213623
6.273;-0.0183105
6.274;-0.0161743
6.275;-0.0149536
6.276;-0.0146484
6.277;-0.0149536
6.278;-0.0149536
6.279;-0.0149536
6.28;-0.0146484
6.281;-0.0140381
6.282;-0.0137329
6.283;-0.0137329
6.284;-0.0149536
6.285;-0.0167847
6.286;-0.0201416
6.287;-0.0241089
6.288;-0.0283813
6.289;-0.0320435
6.29;-0.0350952
6.291;-0.0372314
6.292;-0.0390625
6.293;-0.0402832
6.294;-0.0411987
6.295;-0.0421143
6.296;-0.0430298
6.297;-0.0436401
6.298;-0.0448608
6.299;-0.0460815
6.3;-0.0473022
6.301;-0.0488281
6.302;-0.0500488
6.303;-0.0512695
6.304;-0.0527954
6.305;-0.0543213
6.306;-0.0567627
6.307;-0.0595093
6.308;-0.0628662
6.309;-0.0665283
6.31;-0.0708008
6.311;-0.0753784
6.312;-0.0805664
6.313;-0.0857544
6.314;-0.0909424
6.315;-0.0958252
6.316;-0.100403
6.317;-0.10498
6.318;-0.108948
6.319;-0.11261
6.32;-0.115967
6.321;-0.119019
6.322;-0.121765
6.323;-0.124207
6.324;-0.126648
6.325;-0.128479
6.326;-0.130005
6.327;-0.131531
6.328;-0.133057
6.329;-0.134583
6.33;-0.136719
6.331;-0.13855
6.332;-0.140076
6.333;-0.140991
6.334;-0.141907
6.335;-0.142517
6.336;-0.142517
6.337;-0.142212
6.338;-0.141907
6.339;-0.141602
6.34;-0.141602
6.341;-0.141907
6.342;-0.142212
6.343;-0.142212
6.344;-0.141602
6.345;-0.140991
6.346;-0.139465
6.347;-0.137329
6.348;-0.134583
6.349;-0.131531
6.35;-0.128479
6.351;-0.125122
6.352;-0.121765
6.353;-0.118713
6.354;-0.115967
6.355;-0.114136
6.356;-0.11261
6.357;-0.111389
6.358;-0.110474
6.359;-0.109558
6.36;-0.108643
6.361;-0.108337
6.362;-0.107727
6.363;-0.106812
6.364;-0.104675
6.365;-0.101929
6.366;-0.0976562
6.367;-0.0927734
6.368;-0.0872803
6.369;-0.0811768
6.37;-0.0744629
6.371;-0.0674438
6.372;-0.0598145
6.373;-0.0506592
6.374;-0.0393677
6.375;-0.0259399
6.376;-0.00946045
6.377;0.0100708
6.378;0.0323486
6.379;0.0576782
6.38;0.0860596
6.381;0.116882
6.382;0.150452
6.383;0.187073
6.384;0.227051
6.385;0.270081
6.386;0.317078
6.387;0.368042
6.388;0.422974
6.389;0.482178
6.39;0.544739
6.391;0.610962
6.392;0.679016
6.393;0.748596
6.394;0.818481
6.395;0.887146
6.396;0.953369
6.397;1.01624
6.398;1.07422
6.399;1.12701
6.4;1.17493
6.401;1.21735
6.402;1.25366
6.403;1.28326
6.404;1.30524
6.405;1.31744
6.406;1.31836
6.407;1.30676
6.408;1.28082
6.409;1.24054
6.41;1.18591
6.411;1.11786
6.412;1.03821
6.413;0.948181
6.414;0.849609
6.415;0.744324
6.416;0.634155
6.417;0.52063
6.418;0.405273
6.419;0.289307
6.42;0.174866
6.421;0.0631714
6.422;-0.0436401
6.423;-0.144653
6.424;-0.238037
6.425;-0.322876
6.426;-0.398254
6.427;-0.463562
6.428;-0.517578
6.429;-0.560303
6.43;-0.59082
6.431;-0.610046
6.432;-0.618591
6.433;-0.617065
6.434;-0.606689
6.435;-0.588684
6.436;-0.564575
6.437;-0.535583
6.438;-0.50354
6.439;-0.469666
6.44;-0.435486
6.441;-0.402222
6.442;-0.370483
6.443;-0.340271
6.444;-0.3125
6.445;-0.28717
6.446;-0.264587
6.447;-0.245056
6.448;-0.228577
6.449;-0.214539
6.45;-0.202942
6.451;-0.193481
6.452;-0.185852
6.453;-0.180054
6.454;-0.175476
6.455;-0.171814
6.456;-0.169067
6.457;-0.166321
6.458;-0.163574
6.459;-0.160828
6.46;-0.157776
6.461;-0.154724
6.462;-0.151978
6.463;-0.149536
6.464;-0.14679
6.465;-0.144043
6.466;-0.141602
6.467;-0.139465
6.468;-0.138245
6.469;-0.137329
6.47;-0.136719
6.471;-0.136414
6.472;-0.136108
6.473;-0.135803
6.474;-0.135803
6.475;-0.136108
6.476;-0.136414
6.477;-0.136414
6.478;-0.136719
6.479;-0.137024
6.48;-0.137329
6.481;-0.137634
6.482;-0.137634
6.483;-0.137634
6.484;-0.137329
6.485;-0.136414
6.486;-0.135803
6.487;-0.134583
6.488;-0.133057
6.489;-0.131226
6.49;-0.128784
6.491;-0.125732
6.492;-0.122986
6.493;-0.119934
6.494;-0.116882
6.495;-0.113831
6.496;-0.111084
6.497;-0.108643
6.498;-0.106812
6.499;-0.10498
6.5;-0.103149
6.501;-0.101318
6.502;-0.0994873
6.503;-0.0976562
6.504;-0.0964355
6.505;-0.09552
6.506;-0.0949097
6.507;-0.0946045
6.508;-0.0942993
6.509;-0.093689
6.51;-0.0930786
6.511;-0.0927734
6.512;-0.0924683
6.513;-0.0927734
6.514;-0.0939941
6.515;-0.0958252
6.516;-0.0979614
6.517;-0.100098
6.518;-0.102539
6.519;-0.104675
6.52;-0.107117
6.521;-0.109253
6.522;-0.111084
6.523;-0.112305
6.524;-0.112915
6.525;-0.11261
6.526;-0.111694
6.527;-0.110474
6.528;-0.109558
6.529;-0.108337
6.53;-0.107422
6.531;-0.106201
6.532;-0.104675
6.533;-0.102844
6.534;-0.100708
6.535;-0.0979614
6.536;-0.0949097
6.537;-0.0921631
6.538;-0.0894165
6.539;-0.0869751
6.54;-0.0848389
6.541;-0.0827026
6.542;-0.0805664
6.543;-0.0784302
6.544;-0.0765991
6.545;-0.0753784
6.546;-0.0744629
6.547;-0.0741577
6.548;-0.0744629
6.549;-0.0747681
6.55;-0.0747681
6.551;-0.0744629
6.552;-0.0744629
6.553;-0.0744629
6.554;-0.0744629
6.555;-0.0744629
6.556;-0.0741577
6.557;-0.072937
6.558;-0.071106
6.559;-0.0683594
6.56;-0.065918
6.561;-0.0634766
6.562;-0.0610352
6.563;-0.0595093
6.564;-0.0582886
6.565;-0.0570679
6.566;-0.0558472
6.567;-0.0546265
6.568;-0.0540161
6.569;-0.0537109
6.57;-0.0537109
6.571;-0.0540161
6.572;-0.0543213
6.573;-0.0546265
6.574;-0.0543213
6.575;-0.0540161
6.576;-0.0537109
6.577;-0.0534058
6.578;-0.0540161
6.579;-0.0543213
6.58;-0.0549316
6.581;-0.0552368
6.582;-0.0552368
6.583;-0.0543213
6.584;-0.0524902
6.585;-0.050354
6.586;-0.0479126
6.587;-0.0448608
6.588;-0.0415039
6.589;-0.038147
6.59;-0.0341797
6.591;-0.0299072
6.592;-0.0259399
6.593;-0.0216675
6.594;-0.0177002
6.595;-0.0140381
6.596;-0.0106812
6.597;-0.00793457
6.598;-0.00579834
6.599;-0.00457764
6.6;-0.00396729
6.601;-0.00427246
6.602;-0.00579834
6.603;-0.00793457
6.604;-0.0106812
6.605;-0.0134277
6.606;-0.0158691
6.607;-0.0180054
6.608;-0.0195312
6.609;-0.0204468
6.61;-0.0210571
6.611;-0.0213623
6.612;-0.0216675
6.613;-0.0219727
6.614;-0.0222778
6.615;-0.022583
6.616;-0.022583
6.617;-0.022583
6.618;-0.0222778
6.619;-0.0219727
6.62;-0.0210571
6.621;-0.0195312
6.622;-0.017395
6.623;-0.015564
6.624;-0.0137329
6.625;-0.0128174
6.626;-0.0125122
6.627;-0.0134277
6.628;-0.0149536
6.629;-0.017395
6.63;-0.0204468
6.631;-0.0241089
6.632;-0.0274658
6.633;-0.0305176
6.634;-0.032959
6.635;-0.0350952
6.636;-0.0375366
6.637;-0.039978
6.638;-0.0430298
6.639;-0.0460815
6.64;-0.0494385
6.641;-0.0527954
6.642;-0.0558472
6.643;-0.0585938
6.644;-0.0598145
6.645;-0.0604248
6.646;-0.0601196
6.647;-0.0598145
6.648;-0.0595093
6.649;-0.0592041
6.65;-0.0588989
6.651;-0.0582886
6.652;-0.0579834
6.653;-0.0579834
6.654;-0.0585938
6.655;-0.0595093
6.656;-0.06073
6.657;-0.0616455
6.658;-0.062561
6.659;-0.0628662
6.66;-0.0634766
6.661;-0.0643921
6.662;-0.065918
6.663;-0.067749
6.664;-0.0701904
6.665;-0.072937
6.666;-0.0759888
6.667;-0.0787354
6.668;-0.0811768
6.669;-0.083313
6.67;-0.0848389
6.671;-0.0860596
6.672;-0.0869751
6.673;-0.0875854
6.674;-0.0881958
6.675;-0.0888062
6.676;-0.0891113
6.677;-0.0888062
6.678;-0.0881958
6.679;-0.0872803
6.68;-0.0854492
6.681;-0.0827026
6.682;-0.0796509
6.683;-0.0762939
6.684;-0.0732422
6.685;-0.0704956
6.686;-0.067749
6.687;-0.0653076
6.688;-0.0628662
6.689;-0.06073
6.69;-0.0585938
6.691;-0.0564575
6.692;-0.0543213
6.693;-0.0524902
6.694;-0.0506592
6.695;-0.0491333
6.696;-0.0479126
6.697;-0.0473022
6.698;-0.0466919
6.699;-0.0466919
6.7;-0.0469971
6.701;-0.0476074
6.702;-0.0485229
6.703;-0.0494385
6.704;-0.050354
6.705;-0.0512695
6.706;-0.0527954
6.707;-0.0543213
6.708;-0.0567627
6.709;-0.0592041
6.71;-0.0622559
6.711;-0.0650024
6.712;-0.0680542
6.713;-0.0708008
6.714;-0.0735474
6.715;-0.0765991
6.716;-0.0796509
6.717;-0.0827026
6.718;-0.0857544
6.719;-0.088501
6.72;-0.090332
6.721;-0.0918579
6.722;-0.0927734
6.723;-0.0930786
6.724;-0.0927734
6.725;-0.0924683
6.726;-0.0918579
6.727;-0.0921631
6.728;-0.0927734
6.729;-0.093689
6.73;-0.0952148
6.731;-0.0967407
6.732;-0.0979614
6.733;-0.098877
6.734;-0.0991821
6.735;-0.0997925
6.736;-0.100403
6.737;-0.101318
6.738;-0.102234
6.739;-0.10376
6.74;-0.105286
6.741;-0.107117
6.742;-0.108948
6.743;-0.110474
6.744;-0.111389
6.745;-0.112305
6.746;-0.11261
6.747;-0.11261
6.748;-0.11261
6.749;-0.112305
6.75;-0.112
6.751;-0.111694
6.752;-0.111389
6.753;-0.111389
6.754;-0.111694
6.755;-0.112305
6.756;-0.112305
6.757;-0.112
6.758;-0.111389
6.759;-0.110474
6.76;-0.109558
6.761;-0.108337
6.762;-0.107117
6.763;-0.105896
6.764;-0.10437
6.765;-0.103149
6.766;-0.101929
6.767;-0.101013
6.768;-0.0997925
6.769;-0.098877
6.77;-0.0976562
6.771;-0.0958252
6.772;-0.0939941
6.773;-0.0921631
6.774;-0.0900269
6.775;-0.088501
6.776;-0.0872803
6.777;-0.0869751
6.778;-0.0872803
6.779;-0.0881958
6.78;-0.0888062
6.781;-0.0894165
6.782;-0.0894165
6.783;-0.0891113
6.784;-0.088501
6.785;-0.0878906
6.786;-0.0875854
6.787;-0.0878906
6.788;-0.0888062
6.789;-0.0900269
6.79;-0.0915527
6.791;-0.0933838
6.792;-0.0949097
6.793;-0.0964355
6.794;-0.0979614
6.795;-0.100098
6.796;-0.102234
6.797;-0.10376
6.798;-0.104675
6.799;-0.10498
6.8;-0.105286
6.801;-0.105896
6.802;-0.106812
6.803;-0.107727
6.804;-0.108948
6.805;-0.109863
6.806;-0.110779
6.807;-0.111084
6.808;-0.111389
6.809;-0.111694
6.81;-0.112
6.811;-0.111694
6.812;-0.111084
6.813;-0.110168
6.814;-0.108643
6.815;-0.107422
6.816;-0.106506
6.817;-0.106201
6.818;-0.106201
6.819;-0.106812
6.82;-0.107727
6.821;-0.109558
6.822;-0.111694
6.823;-0.114441
6.824;-0.117188
6.825;-0.119934
6.826;-0.122375
6.827;-0.124207
6.828;-0.126343
6.829;-0.128174
6.83;-0.13031
6.831;-0.132751
6.832;-0.134888
6.833;-0.136414
6.834;-0.137329
6.835;-0.137329
6.836;-0.136414
6.837;-0.134583
6.838;-0.132446
6.839;-0.13031
6.84;-0.128174
6.841;-0.126038
6.842;-0.123596
6.843;-0.12085
6.844;-0.118103
6.845;-0.115051
6.846;-0.111389
6.847;-0.108032
6.848;-0.10437
6.849;-0.101318
6.85;-0.098877
6.851;-0.0970459
6.852;-0.0958252
6.853;-0.0952148
6.854;-0.0949097
6.855;-0.0949097
6.856;-0.0949097
6.857;-0.0952148
6.858;-0.0952148
6.859;-0.0952148
6.86;-0.09552
6.861;-0.09552
6.862;-0.0961304
6.863;-0.0967407
6.864;-0.0973511
6.865;-0.0979614
6.866;-0.0979614
6.867;-0.0976562
6.868;-0.0973511
6.869;-0.0970459
6.87;-0.0970459
6.871;-0.0973511
6.872;-0.0979614
6.873;-0.098877
6.874;-0.0994873
6.875;-0.100098
6.876;-0.100708
6.877;-0.101318
6.878;-0.102844
6.879;-0.104675
6.88;-0.106812
6.881;-0.108948
6.882;-0.111389
6.883;-0.113831
6.884;-0.116272
6.885;-0.118713
6.886;-0.12085
6.887;-0.122375
6.888;-0.123901
6.889;-0.125427
6.89;-0.127258
6.891;-0.128784
6.892;-0.13031
6.893;-0.131836
6.894;-0.132751
6.895;-0.133362
6.896;-0.133057
6.897;-0.131836
6.898;-0.130005
6.899;-0.127563
6.9;-0.125427
6.901;-0.123596
6.902;-0.12207
6.903;-0.12085
6.904;-0.119629
6.905;-0.118103
6.906;-0.116272
6.907;-0.114441
6.908;-0.112915
6.909;-0.111084
6.91;-0.109253
6.911;-0.107422
6.912;-0.105591
6.913;-0.104065
