ECG1.txt

76.304348
75.247863
297.923077
74.478632
###BEGIN DATA WAVES
968.000000 0.099793 1024.000000 -0.051575 1091.000000 0.341187 1117.000000 -0.268555 1338.000000 0.088806
1657.000000 0.073242 1725.000000 -0.061951 1780.000000 0.376282 1807.000000 -0.303650 2025.000000 0.108337
2370.000000 0.052185 2461.000000 -0.088501 2492.000000 0.351562 2518.000000 -0.317688 2734.000000 0.090942
3124.000000 0.080566 3174.000000 -0.062866 3245.000000 0.395203 3272.000000 -0.271301 3488.000000 0.138550
3847.000000 0.088501 3937.000000 -0.047302 3967.000000 0.343933 3993.000000 -0.269775 4203.000000 0.128174
4537.000000 0.133667 4629.000000 -0.013123 4658.000000 0.347900 4685.000000 -0.245667 4898.000000 0.168762
5228.000000 0.130920 5319.000000 -0.022583 5350.000000 0.393066 5376.000000 -0.241699 5590.000000 0.168457
5939.000000 0.135193 6029.000000 -0.009460 6060.000000 0.427856 6087.000000 -0.239258 6312.000000 0.191345
6672.000000 0.166626 6764.000000 -0.002136 6795.000000 0.450745 6821.000000 -0.213623 7035.000000 0.171204
7457.000000 0.078430 7549.000000 -0.062561 7580.000000 0.387268 7607.000000 -0.271912 7824.000000 0.105591
9642.000000 0.076599 9694.000000 -0.060120 9764.000000 0.399475 9791.000000 -0.270081 10004.000000 0.164185
10396.000000 0.117798 10489.000000 -0.032349 10517.000000 0.422058 10544.000000 -0.246582 10767.000000 0.166931
11140.000000 0.152893 11206.000000 0.005493 11262.000000 0.430908 11290.000000 -0.208130 11503.000000 0.178223
11863.000000 0.150146 11954.000000 0.003967 11984.000000 0.377502 12011.000000 -0.225220 12226.000000 0.169678
12566.000000 0.150452 12622.000000 0.003052 12687.000000 0.382080 12713.000000 -0.211487 12927.000000 0.187683
13288.000000 0.157166 13379.000000 0.007629 13412.000000 0.435181 13438.000000 -0.239563 13653.000000 0.197754
14023.000000 0.084228 14117.000000 -0.076294 14148.000000 0.380859 14175.000000 -0.294189 14400.000000 0.104370
14801.000000 0.019531 14854.000000 -0.107422 14921.000000 0.340576 14948.000000 -0.326843 15170.000000 0.060730
16302.000000 0.078125 16350.000000 -0.050964 16420.000000 0.340576 16446.000000 -0.265808 16660.000000 0.149536
17084.000000 0.098267 17172.000000 -0.040894 17205.000000 0.399170 17231.000000 -0.279541 17451.000000 0.123596
17898.000000 0.063477 17986.000000 -0.038757 18018.000000 0.432129 18045.000000 -0.258179 18265.000000 0.154419
18717.000000 0.087280 18772.000000 -0.040283 18836.000000 0.405884 18863.000000 -0.267334 19085.000000 0.144043
19442.000000 0.108948 19534.000000 -0.046997 19564.000000 0.342407 19591.000000 -0.284729 19806.000000 0.114136
20151.000000 0.119019 20237.000000 -0.024719 20272.000000 0.375366 20299.000000 -0.256348 20523.000000 0.154114
20870.000000 0.089111 20930.000000 -0.056763 20993.000000 0.376587 21020.000000 -0.300598 21247.000000 0.129395
21633.000000 0.067139 21720.000000 -0.057068 21752.000000 0.396729 21780.000000 -0.278320 22002.000000 0.133667
22442.000000 0.047302 22490.000000 -0.062866 22562.000000 0.353394 22589.000000 -0.296631 22816.000000 0.115662
23180.000000 0.088806 23237.000000 -0.038452 23301.000000 0.354309 23328.000000 -0.272827 23549.000000 0.156860
23899.000000 0.141296 23991.000000 -0.012512 24021.000000 0.408325 24049.000000 -0.248108 24268.000000 0.155334
24686.000000 0.094910 24776.000000 -0.044250 24809.000000 0.414429 24836.000000 -0.269470 25060.000000 0.148010
25527.000000 0.076294 25588.000000 -0.038147 25646.000000 0.424500 25674.000000 -0.263672 25899.000000 0.126953
26299.000000 0.058289 26377.000000 -0.074158 26419.000000 0.326843 26446.000000 -0.306091 26666.000000 0.103455
27009.000000 0.086060 27083.000000 -0.050354 27131.000000 0.336914 27158.000000 -0.287781 27383.000000 0.126953
27737.000000 0.087585 27828.000000 -0.051880 27858.000000 0.392151 27885.000000 -0.285034 28098.000000 0.141602
28482.000000 0.077515 28573.000000 -0.062561 28605.000000 0.392456 28632.000000 -0.280457 28863.000000 0.127869
29223.000000 0.071106 29313.000000 -0.072022 29345.000000 0.374756 29372.000000 -0.295410 29592.000000 0.125122
29927.000000 0.086670 30019.000000 -0.057373 30050.000000 0.329895 30077.000000 -0.281372 30307.000000 0.124207
30633.000000 0.084228 30685.000000 -0.058594 30754.000000 0.352173 30781.000000 -0.283813 31002.000000 0.122681
31349.000000 0.108948 31401.000000 -0.028076 31473.000000 0.408020 31500.000000 -0.269775 31712.000000 0.145569
32138.000000 0.094910 32229.000000 -0.052490 32261.000000 0.411377 32288.000000 -0.275269 32511.000000 0.154724
32917.000000 0.085754 32974.000000 -0.061951 33038.000000 0.371704 33065.000000 -0.284424 33283.000000 0.116272
34357.000000 0.068970 34409.000000 -0.070801 34478.000000 0.341187 34505.000000 -0.303955 34720.000000 0.087891
35077.000000 0.071411 35170.000000 -0.068359 35201.000000 0.378113 35228.000000 -0.296326 35448.000000 0.095215
35804.000000 0.080261 35857.000000 -0.046692 35925.000000 0.407104 35952.000000 -0.281677 36182.000000 0.135193
36552.000000 0.111694 36600.000000 -0.025024 36672.000000 0.393677 36698.000000 -0.254822 36911.000000 0.161438
37249.000000 0.123901 37342.000000 -0.025330 37372.000000 0.360107 37399.000000 -0.245972 37617.000000 0.134583
37960.000000 0.118103 38020.000000 -0.035400 38082.000000 0.375977 38109.000000 -0.275879 38322.000000 0.072632
38697.000000 0.068359 38758.000000 -0.063477 38819.000000 0.385132 38847.000000 -0.293274 39077.000000 0.110779
39517.000000 0.069275 39568.000000 -0.042725 39637.000000 0.439453 39664.000000 -0.260315 39885.000000 0.165405
40311.000000 0.082397 40402.000000 -0.034790 40434.000000 0.376892 40460.000000 -0.268250 40683.000000 0.135193
41031.000000 0.114441 41123.000000 -0.022583 41152.000000 0.355530 41179.000000 -0.243530 41395.000000 0.136414
41731.000000 0.127563 41800.000000 -0.015564 41854.000000 0.393372 41881.000000 -0.256653 42104.000000 0.148315
42438.000000 0.124207 42528.000000 -0.016480 42559.000000 0.411987 42585.000000 -0.253296 42808.000000 0.137939
43132.000000 0.076904 43229.000000 -0.075378 43261.000000 0.384216 43288.000000 -0.306396 43509.000000 0.108337
43869.000000 0.046387 43917.000000 -0.086060 43992.000000 0.345764 44019.000000 -0.326843 44230.000000 0.099793
44584.000000 0.083618 44635.000000 -0.050049 44707.000000 0.337830 44733.000000 -0.273743 44955.000000 0.117493
45303.000000 0.106201 45392.000000 -0.030518 45424.000000 0.379639 45450.000000 -0.258484 45676.000000 0.135803
46056.000000 0.123596 46125.000000 -0.002441 46179.000000 0.431519 46205.000000 -0.240784 46430.000000 0.167236
46857.000000 0.085754 46947.000000 -0.048828 46980.000000 0.422974 47006.000000 -0.274048 47227.000000 0.137024
47671.000000 0.075989 47761.000000 -0.047913 47792.000000 0.382996 47819.000000 -0.281677 48036.000000 0.114136
48415.000000 0.101318 48472.000000 -0.033264 48538.000000 0.354919 48565.000000 -0.265503 48785.000000 0.130310
49163.000000 0.112000 49254.000000 -0.033875 49286.000000 0.369263 49312.000000 -0.269775 49532.000000 0.126343
49886.000000 0.097046 49944.000000 -0.052490 50011.000000 0.387268 50038.000000 -0.285034 50260.000000 0.127258
50648.000000 0.092163 50739.000000 -0.054627 50771.000000 0.399780 50798.000000 -0.287781 51023.000000 0.114746
51413.000000 0.087891 51471.000000 -0.049439 51537.000000 0.408325 51564.000000 -0.274353 51789.000000 0.131226
52178.000000 0.073242 52271.000000 -0.078735 52304.000000 0.377502 52330.000000 -0.309753 52561.000000 0.093689
52890.000000 0.100403 52942.000000 -0.034485 53011.000000 0.358582 53038.000000 -0.259399 53255.000000 0.137024
53598.000000 0.089111 53694.000000 -0.052490 53723.000000 0.377502 53750.000000 -0.273743 53968.000000 0.130615
54317.000000 0.095825 54365.000000 -0.050354 54442.000000 0.433960 54468.000000 -0.149841 54685.000000 0.207214
55124.000000 0.135803 55218.000000 -0.004272 55250.000000 0.494385 55277.000000 -0.192261 55496.000000 0.165100
55901.000000 0.092773 55973.000000 -0.032044 56023.000000 0.369873 56050.000000 -0.248108 56272.000000 0.130005
56657.000000 0.105896 56706.000000 -0.015259 56779.000000 0.354919 56805.000000 -0.263672 57031.000000 0.128784
57379.000000 0.087891 57472.000000 -0.048828 57502.000000 0.350647 57528.000000 -0.281067 57756.000000 0.120850
58151.000000 0.076904 58213.000000 -0.059204 58275.000000 0.386353 58302.000000 -0.306702 58531.000000 0.102844
58995.000000 0.061645 59091.000000 -0.062561 59121.000000 0.411377 59148.000000 -0.297546 59380.000000 0.110474
59800.000000 0.092468 59848.000000 -0.062866 59924.000000 0.422363 59951.000000 -0.281677 60179.000000 0.121155
60556.000000 0.082092 60651.000000 -0.052490 60680.000000 0.354004 60706.000000 -0.276489 60931.000000 0.116577
61273.000000 0.102844 61335.000000 -0.036316 61397.000000 0.354919 61423.000000 -0.260620 61639.000000 0.139465
61992.000000 0.126038 62086.000000 -0.015259 62117.000000 0.419006 62145.000000 -0.230103 62367.000000 0.154114
62735.000000 0.121765 62810.000000 -0.017090 62859.000000 0.431824 62885.000000 -0.246277 63112.000000 0.153503
63548.000000 0.096435 63642.000000 -0.053101 63675.000000 0.414124 63702.000000 -0.276794 63927.000000 0.115967
64337.000000 0.024414 64425.000000 -0.100403 64461.000000 0.328064 64488.000000 -0.321655 64722.000000 0.080872
65831.000000 0.103149 65885.000000 -0.032959 65956.000000 0.376587 65982.000000 -0.275879 66217.000000 0.135193
66588.000000 0.108337 66681.000000 -0.026856 66714.000000 0.424805 66740.000000 -0.249329 66973.000000 0.145874
67385.000000 0.106812 67458.000000 -0.029907 67511.000000 0.428467 67537.000000 -0.262146 67771.000000 0.159607
68174.000000 0.084534 68228.000000 -0.054627 68298.000000 0.373535 68326.000000 -0.281982 68541.000000 0.102844
68875.000000 0.068970 68931.000000 -0.056458 69001.000000 0.327454 69028.000000 -0.291748 69247.000000 0.085754
69592.000000 0.092773 69658.000000 -0.056458 69713.000000 0.350037 69740.000000 -0.293274 69970.000000 0.088196
70329.000000 0.079040 70422.000000 -0.061035 70453.000000 0.401611 70479.000000 -0.283508 70710.000000 0.133057
71113.000000 0.091248 71207.000000 -0.040283 71238.000000 0.443420 71265.000000 -0.254517 71501.000000 0.157166
71926.000000 0.113220 72018.000000 -0.017395 72052.000000 0.422058 72078.000000 -0.253601 72303.000000 0.154114
72666.000000 0.088806 72719.000000 -0.045776 72789.000000 0.347290 72815.000000 -0.274963 73044.000000 0.118713
73387.000000 0.111084 73458.000000 -0.040894 73510.000000 0.347595 73535.000000 -0.294495 73773.000000 0.115662
74067.000000 0.088196 74162.000000 -0.047302 74195.000000 0.396118 74222.000000 -0.286255 74445.000000 0.114136
74786.000000 0.072327 74876.000000 -0.063477 74910.000000 0.401611 74937.000000 -0.296326 75160.000000 0.107727
75562.000000 0.079651 75615.000000 -0.062256 75685.000000 0.407104 75713.000000 -0.294800 75937.000000 0.104370
76342.000000 0.083313 76396.000000 -0.054932 76465.000000 0.359802 76491.000000 -0.283508 76717.000000 0.117798
77067.000000 0.112610 77162.000000 -0.015869 77193.000000 0.374146 77219.000000 -0.255127 77451.000000 0.132751
77814.000000 0.108337 77862.000000 -0.026856 77937.000000 0.424805 77964.000000 -0.268555 78197.000000 0.141907
78552.000000 0.128784 78644.000000 -0.014038 78675.000000 0.433350 78702.000000 -0.252686 78920.000000 0.142517
79325.000000 0.101013 79389.000000 -0.038452 79451.000000 0.420532 79478.000000 -0.274658 79700.000000 0.117493
80048.000000 0.098877 80098.000000 -0.032959 80171.000000 0.355835 80197.000000 -0.261230 80415.000000 0.129089
80774.000000 0.108337 80866.000000 -0.033569 80897.000000 0.336914 80924.000000 -0.284424 81149.000000 0.091858
81486.000000 0.068970 81541.000000 -0.069580 81610.000000 0.356140 81636.000000 -0.310974 81862.000000 0.082092
82241.000000 0.077515 82299.000000 -0.057983 82366.000000 0.403137 82393.000000 -0.288391 82622.000000 0.133667
83034.000000 0.116272 83129.000000 -0.021973 83161.000000 0.458984 83188.000000 -0.254211 83417.000000 0.149841
83865.000000 0.075073 83917.000000 -0.044250 83989.000000 0.406799 84015.000000 -0.278931 84243.000000 0.103455
84621.000000 0.107422 84686.000000 -0.025330 84744.000000 0.369873 84771.000000 -0.262451 84996.000000 0.149231
85358.000000 0.144653 85411.000000 0.006409 85480.000000 0.398865 85507.000000 -0.238342 85729.000000 0.142517
86077.000000 0.108948 86172.000000 -0.038147 86202.000000 0.391541 86228.000000 -0.269470 86457.000000 0.107422
86822.000000 0.064697 86873.000000 -0.068970 86947.000000 0.379944 86974.000000 -0.295105 87202.000000 0.104675
87594.000000 0.073853 87644.000000 -0.063477 87717.000000 0.409241 87743.000000 -0.273743 87974.000000 0.101013
88322.000000 0.083008 88417.000000 -0.058289 88448.000000 0.338440 88474.000000 -0.285645 88704.000000 0.102234
89016.000000 0.097656 89113.000000 -0.051880 89141.000000 0.328979 89167.000000 -0.282898 89385.000000 0.094604
89704.000000 0.075684 89797.000000 -0.065613 89829.000000 0.361328 89856.000000 -0.291138 90092.000000 0.088196
90409.000000 0.066223 90466.000000 -0.074463 90533.000000 0.381470 90559.000000 -0.306702 90780.000000 0.097351
91186.000000 0.089111 91271.000000 -0.044556 91313.000000 0.418701 91340.000000 -0.275269 91559.000000 0.129700
###END DATA WAVES
###BEGIN DATA HEARTBEAT
72.000000
60.000000
84.000000
60.000000
84.000000
72.000000
72.000000
84.000000
84.000000
72.000000
84.000000
84.000000
72.000000
72.000000
84.000000
72.000000
84.000000
84.000000
###END DATA HEARTBEAT
###BEGIN PAS
5.000000
###END PAS
