0;-0.0335693
0.001;-0.0323486
0.002;-0.0311279
0.003;-0.0302124
0.004;-0.0305176
0.005;-0.0311279
0.006;-0.0317383
0.007;-0.0323486
0.008;-0.0317383
0.009;-0.0302124
0.01;-0.0283813
0.011;-0.0262451
0.012;-0.0241089
0.013;-0.022583
0.014;-0.0213623
0.015;-0.020752
0.016;-0.020752
0.017;-0.0204468
0.018;-0.0192261
0.019;-0.017395
0.02;-0.0149536
0.021;-0.0128174
0.022;-0.0112915
0.023;-0.0100708
0.024;-0.00915527
0.025;-0.0088501
0.026;-0.0088501
0.027;-0.00946045
0.028;-0.0100708
0.029;-0.0106812
0.03;-0.0112915
0.031;-0.012207
0.032;-0.0131226
0.033;-0.0140381
0.034;-0.0149536
0.035;-0.0161743
0.036;-0.0177002
0.037;-0.0189209
0.038;-0.0204468
0.039;-0.0213623
0.04;-0.0222778
0.041;-0.0228882
0.042;-0.0231934
0.043;-0.0234985
0.044;-0.0241089
0.045;-0.0244141
0.046;-0.0247192
0.047;-0.0247192
0.048;-0.0247192
0.049;-0.0247192
0.05;-0.0244141
0.051;-0.0241089
0.052;-0.0234985
0.053;-0.0228882
0.054;-0.022583
0.055;-0.0216675
0.056;-0.0201416
0.057;-0.0186157
0.058;-0.0164795
0.059;-0.0146484
0.06;-0.0128174
0.061;-0.0109863
0.062;-0.00946045
0.063;-0.00854492
0.064;-0.00823975
0.065;-0.00793457
0.066;-0.00793457
0.067;-0.00793457
0.068;-0.00732422
0.069;-0.00579834
0.07;-0.00396729
0.071;-0.00213623
0.072;-0.000610352
0.073;0
0.074;0.000610352
0.075;0.000610352
0.076;0.000610352
0.077;0.000915527
0.078;0.0012207
0.079;0.00183105
0.08;0.00244141
0.081;0.00305176
0.082;0.00335693
0.083;0.00396729
0.084;0.00457764
0.085;0.00549316
0.086;0.00671387
0.087;0.00793457
0.088;0.00854492
0.089;0.0088501
0.09;0.0088501
0.091;0.0088501
0.092;0.00854492
0.093;0.00762939
0.094;0.00640869
0.095;0.00488281
0.096;0.00335693
0.097;0.00213623
0.098;0.000915527
0.099;-0.000305176
0.1;-0.00152588
0.101;-0.00244141
0.102;-0.00366211
0.103;-0.00488281
0.104;-0.00610352
0.105;-0.00732422
0.106;-0.00854492
0.107;-0.00976562
0.108;-0.010376
0.109;-0.0109863
0.11;-0.0112915
0.111;-0.0112915
0.112;-0.0109863
0.113;-0.010376
0.114;-0.00976562
0.115;-0.0088501
0.116;-0.00762939
0.117;-0.00701904
0.118;-0.00640869
0.119;-0.00579834
0.12;-0.00488281
0.121;-0.00366211
0.122;-0.00213623
0.123;-0.000610352
0.124;0
0.125;0.000610352
0.126;0.000915527
0.127;0.000305176
0.128;-0.000610352
0.129;-0.00183105
0.13;-0.00305176
0.131;-0.00457764
0.132;-0.00579834
0.133;-0.00671387
0.134;-0.00793457
0.135;-0.00915527
0.136;-0.0100708
0.137;-0.0106812
0.138;-0.0112915
0.139;-0.0119019
0.14;-0.012207
0.141;-0.0125122
0.142;-0.0128174
0.143;-0.0131226
0.144;-0.0131226
0.145;-0.0128174
0.146;-0.0125122
0.147;-0.012207
0.148;-0.0115967
0.149;-0.0106812
0.15;-0.0100708
0.151;-0.00946045
0.152;-0.00915527
0.153;-0.00854492
0.154;-0.00793457
0.155;-0.00793457
0.156;-0.00793457
0.157;-0.00854492
0.158;-0.0088501
0.159;-0.00976562
0.16;-0.010376
0.161;-0.0119019
0.162;-0.0137329
0.163;-0.0161743
0.164;-0.0186157
0.165;-0.020752
0.166;-0.0222778
0.167;-0.0228882
0.168;-0.0228882
0.169;-0.0222778
0.17;-0.0219727
0.171;-0.0213623
0.172;-0.020752
0.173;-0.0204468
0.174;-0.0204468
0.175;-0.0204468
0.176;-0.0204468
0.177;-0.020752
0.178;-0.020752
0.179;-0.020752
0.18;-0.0198364
0.181;-0.0189209
0.182;-0.0177002
0.183;-0.0167847
0.184;-0.0170898
0.185;-0.0177002
0.186;-0.0189209
0.187;-0.0198364
0.188;-0.020752
0.189;-0.0216675
0.19;-0.022583
0.191;-0.0234985
0.192;-0.0238037
0.193;-0.0234985
0.194;-0.0231934
0.195;-0.022583
0.196;-0.022583
0.197;-0.0222778
0.198;-0.0219727
0.199;-0.0213623
0.2;-0.0204468
0.201;-0.0192261
0.202;-0.0177002
0.203;-0.0158691
0.204;-0.0137329
0.205;-0.0115967
0.206;-0.00946045
0.207;-0.00732422
0.208;-0.00579834
0.209;-0.00396729
0.21;-0.00244141
0.211;-0.0012207
0.212;0
0.213;0.0012207
0.214;0.00244141
0.215;0.00396729
0.216;0.00549316
0.217;0.00671387
0.218;0.00762939
0.219;0.00854492
0.22;0.00915527
0.221;0.00976562
0.222;0.0100708
0.223;0.0106812
0.224;0.0109863
0.225;0.0109863
0.226;0.0109863
0.227;0.010376
0.228;0.00976562
0.229;0.00915527
0.23;0.00854492
0.231;0.00823975
0.232;0.00793457
0.233;0.00823975
0.234;0.0088501
0.235;0.00976562
0.236;0.010376
0.237;0.0109863
0.238;0.0115967
0.239;0.0115967
0.24;0.0112915
0.241;0.0109863
0.242;0.0106812
0.243;0.0106812
0.244;0.0109863
0.245;0.0112915
0.246;0.012207
0.247;0.0134277
0.248;0.0146484
0.249;0.015564
0.25;0.0167847
0.251;0.017395
0.252;0.0183105
0.253;0.0189209
0.254;0.0198364
0.255;0.0210571
0.256;0.0219727
0.257;0.022583
0.258;0.0228882
0.259;0.0228882
0.26;0.0234985
0.261;0.0241089
0.262;0.0250244
0.263;0.0262451
0.264;0.0271606
0.265;0.0274658
0.266;0.0268555
0.267;0.0259399
0.268;0.0244141
0.269;0.0228882
0.27;0.0213623
0.271;0.0195312
0.272;0.0177002
0.273;0.0152588
0.274;0.012207
0.275;0.00854492
0.276;0.00427246
0.277;0.000915527
0.278;-0.00183105
0.279;-0.00335693
0.28;-0.00396729
0.281;-0.00457764
0.282;-0.00457764
0.283;-0.00488281
0.284;-0.00549316
0.285;-0.00671387
0.286;-0.00793457
0.287;-0.00946045
0.288;-0.0106812
0.289;-0.0115967
0.29;-0.0125122
0.291;-0.0131226
0.292;-0.0140381
0.293;-0.0152588
0.294;-0.0170898
0.295;-0.0195312
0.296;-0.0219727
0.297;-0.0247192
0.298;-0.0268555
0.299;-0.0286865
0.3;-0.0305176
0.301;-0.0323486
0.302;-0.0335693
0.303;-0.0350952
0.304;-0.0363159
0.305;-0.0375366
0.306;-0.0384521
0.307;-0.0384521
0.308;-0.0375366
0.309;-0.0366211
0.31;-0.0354004
0.311;-0.0341797
0.312;-0.032959
0.313;-0.0314331
0.314;-0.0302124
0.315;-0.0289917
0.316;-0.0280762
0.317;-0.027771
0.318;-0.027771
0.319;-0.0280762
0.32;-0.0286865
0.321;-0.0302124
0.322;-0.0320435
0.323;-0.0335693
0.324;-0.0344849
0.325;-0.0350952
0.326;-0.0357056
0.327;-0.0357056
0.328;-0.0360107
0.329;-0.0360107
0.33;-0.0360107
0.331;-0.0354004
0.332;-0.03479
0.333;-0.0335693
0.334;-0.0323486
0.335;-0.0311279
0.336;-0.0299072
0.337;-0.0286865
0.338;-0.027771
0.339;-0.0271606
0.34;-0.0262451
0.341;-0.0253296
0.342;-0.0244141
0.343;-0.0234985
0.344;-0.0231934
0.345;-0.0231934
0.346;-0.0234985
0.347;-0.0241089
0.348;-0.0250244
0.349;-0.0262451
0.35;-0.0274658
0.351;-0.0289917
0.352;-0.0302124
0.353;-0.0308228
0.354;-0.0308228
0.355;-0.0308228
0.356;-0.0308228
0.357;-0.0302124
0.358;-0.0289917
0.359;-0.0274658
0.36;-0.0256348
0.361;-0.0234985
0.362;-0.0213623
0.363;-0.0195312
0.364;-0.0183105
0.365;-0.0170898
0.366;-0.0158691
0.367;-0.0140381
0.368;-0.012207
0.369;-0.010376
0.37;-0.00854492
0.371;-0.00671387
0.372;-0.00488281
0.373;-0.00366211
0.374;-0.00274658
0.375;-0.00305176
0.376;-0.00366211
0.377;-0.00488281
0.378;-0.00640869
0.379;-0.00793457
0.38;-0.00946045
0.381;-0.0106812
0.382;-0.0119019
0.383;-0.0131226
0.384;-0.0146484
0.385;-0.0161743
0.386;-0.0180054
0.387;-0.0198364
0.388;-0.0219727
0.389;-0.0241089
0.39;-0.0259399
0.391;-0.0274658
0.392;-0.0280762
0.393;-0.027771
0.394;-0.0265503
0.395;-0.0244141
0.396;-0.022583
0.397;-0.0201416
0.398;-0.0177002
0.399;-0.0143433
0.4;-0.010376
0.401;-0.00579834
0.402;0
0.403;0.00701904
0.404;0.0152588
0.405;0.0247192
0.406;0.0354004
0.407;0.0473022
0.408;0.0604248
0.409;0.0750732
0.41;0.0912476
0.411;0.108948
0.412;0.128174
0.413;0.148926
0.414;0.170898
0.415;0.193787
0.416;0.217285
0.417;0.241394
0.418;0.265808
0.419;0.290527
0.42;0.314941
0.421;0.33844
0.422;0.360107
0.423;0.379333
0.424;0.395203
0.425;0.406494
0.426;0.412903
0.427;0.414124
0.428;0.409851
0.429;0.400696
0.43;0.386658
0.431;0.368652
0.432;0.346375
0.433;0.321045
0.434;0.292358
0.435;0.26062
0.436;0.226135
0.437;0.189514
0.438;0.151672
0.439;0.113831
0.44;0.0765991
0.441;0.0405884
0.442;0.00640869
0.443;-0.0256348
0.444;-0.0552368
0.445;-0.0820923
0.446;-0.105896
0.447;-0.126343
0.448;-0.143127
0.449;-0.156555
0.45;-0.166626
0.451;-0.173645
0.452;-0.178223
0.453;-0.180359
0.454;-0.180664
0.455;-0.179749
0.456;-0.178223
0.457;-0.176697
0.458;-0.174255
0.459;-0.171509
0.46;-0.167847
0.461;-0.163574
0.462;-0.158386
0.463;-0.153198
0.464;-0.147705
0.465;-0.141907
0.466;-0.136108
0.467;-0.13031
0.468;-0.124512
0.469;-0.118713
0.47;-0.11322
0.471;-0.107422
0.472;-0.101318
0.473;-0.0952148
0.474;-0.0891113
0.475;-0.0827026
0.476;-0.0756836
0.477;-0.0689697
0.478;-0.062561
0.479;-0.0567627
0.48;-0.0518799
0.481;-0.0482178
0.482;-0.045166
0.483;-0.0430298
0.484;-0.0408936
0.485;-0.0393677
0.486;-0.0384521
0.487;-0.0378418
0.488;-0.0375366
0.489;-0.0375366
0.49;-0.0375366
0.491;-0.0375366
0.492;-0.0372314
0.493;-0.0369263
0.494;-0.0372314
0.495;-0.0375366
0.496;-0.0384521
0.497;-0.0393677
0.498;-0.0408936
0.499;-0.0424194
0.5;-0.0442505
0.501;-0.0454712
0.502;-0.0466919
0.503;-0.0469971
0.504;-0.0469971
0.505;-0.0466919
0.506;-0.0454712
0.507;-0.0439453
0.508;-0.0421143
0.509;-0.0402832
0.51;-0.0390625
0.511;-0.0375366
0.512;-0.0360107
0.513;-0.0338745
0.514;-0.0314331
0.515;-0.0289917
0.516;-0.0265503
0.517;-0.0241089
0.518;-0.0219727
0.519;-0.0204468
0.52;-0.0192261
0.521;-0.0186157
0.522;-0.0177002
0.523;-0.0170898
0.524;-0.0167847
0.525;-0.0164795
0.526;-0.0167847
0.527;-0.0170898
0.528;-0.017395
0.529;-0.0180054
0.53;-0.0186157
0.531;-0.0195312
0.532;-0.0201416
0.533;-0.020752
0.534;-0.0210571
0.535;-0.0210571
0.536;-0.020752
0.537;-0.0204468
0.538;-0.0201416
0.539;-0.0198364
0.54;-0.0195312
0.541;-0.0192261
0.542;-0.0186157
0.543;-0.0180054
0.544;-0.017395
0.545;-0.0170898
0.546;-0.0164795
0.547;-0.015564
0.548;-0.0149536
0.549;-0.0137329
0.55;-0.0128174
0.551;-0.0119019
0.552;-0.0109863
0.553;-0.010376
0.554;-0.0100708
0.555;-0.00946045
0.556;-0.00854492
0.557;-0.00732422
0.558;-0.00579834
0.559;-0.00427246
0.56;-0.00274658
0.561;-0.00183105
0.562;-0.000915527
0.563;0
0.564;0.00152588
0.565;0.00366211
0.566;0.00671387
0.567;0.00976562
0.568;0.0125122
0.569;0.0152588
0.57;0.017395
0.571;0.0195312
0.572;0.020752
0.573;0.0216675
0.574;0.0222778
0.575;0.022583
0.576;0.0228882
0.577;0.022583
0.578;0.0222778
0.579;0.0213623
0.58;0.0204468
0.581;0.0192261
0.582;0.0180054
0.583;0.0164795
0.584;0.0146484
0.585;0.0125122
0.586;0.010376
0.587;0.00823975
0.588;0.00610352
0.589;0.00457764
0.59;0.00335693
0.591;0.00244141
0.592;0.00213623
0.593;0.00213623
0.594;0.00244141
0.595;0.00366211
0.596;0.00549316
0.597;0.00762939
0.598;0.0100708
0.599;0.0125122
0.6;0.0146484
0.601;0.0167847
0.602;0.0186157
0.603;0.0201416
0.604;0.0216675
0.605;0.0231934
0.606;0.0247192
0.607;0.0259399
0.608;0.0271606
0.609;0.027771
0.61;0.027771
0.611;0.0274658
0.612;0.0268555
0.613;0.0262451
0.614;0.0259399
0.615;0.0256348
0.616;0.0250244
0.617;0.0244141
0.618;0.0238037
0.619;0.0231934
0.62;0.022583
0.621;0.0219727
0.622;0.0219727
0.623;0.0219727
0.624;0.0222778
0.625;0.0228882
0.626;0.0234985
0.627;0.0241089
0.628;0.0244141
0.629;0.0247192
0.63;0.0253296
0.631;0.0256348
0.632;0.0262451
0.633;0.0265503
0.634;0.0274658
0.635;0.0280762
0.636;0.0286865
0.637;0.0292969
0.638;0.0292969
0.639;0.0296021
0.64;0.0292969
0.641;0.0296021
0.642;0.0299072
0.643;0.0308228
0.644;0.0320435
0.645;0.0338745
0.646;0.0360107
0.647;0.038147
0.648;0.039978
0.649;0.0415039
0.65;0.0427246
0.651;0.0436401
0.652;0.0442505
0.653;0.0445557
0.654;0.0454712
0.655;0.0463867
0.656;0.0473022
0.657;0.0485229
0.658;0.0494385
0.659;0.050354
0.66;0.0515747
0.661;0.0531006
0.662;0.0549316
0.663;0.0564575
0.664;0.0576782
0.665;0.0585938
0.666;0.0592041
0.667;0.0598145
0.668;0.0604248
0.669;0.0610352
0.67;0.0619507
0.671;0.0628662
0.672;0.0640869
0.673;0.0662231
0.674;0.0689697
0.675;0.0723267
0.676;0.0759888
0.677;0.0793457
0.678;0.0814819
0.679;0.0830078
0.68;0.0839233
0.681;0.0842285
0.682;0.0848389
0.683;0.0848389
0.684;0.085144
0.685;0.0848389
0.686;0.0845337
0.687;0.0839233
0.688;0.083313
0.689;0.0827026
0.69;0.0820923
0.691;0.0817871
0.692;0.0814819
0.693;0.0805664
0.694;0.0793457
0.695;0.0772095
0.696;0.0747681
0.697;0.0723267
0.698;0.0701904
0.699;0.0692749
0.7;0.0692749
0.701;0.0698853
0.702;0.0704956
0.703;0.071106
0.704;0.0717163
0.705;0.0717163
0.706;0.0717163
0.707;0.071106
0.708;0.0708008
0.709;0.0704956
0.71;0.0698853
0.711;0.0692749
0.712;0.0683594
0.713;0.0671387
0.714;0.0662231
0.715;0.0653076
0.716;0.0643921
0.717;0.0631714
0.718;0.0613403
0.719;0.0592041
0.72;0.0567627
0.721;0.0537109
0.722;0.050354
0.723;0.0469971
0.724;0.0436401
0.725;0.0405884
0.726;0.0375366
0.727;0.0350952
0.728;0.032959
0.729;0.0311279
0.73;0.0289917
0.731;0.0271606
0.732;0.0253296
0.733;0.0231934
0.734;0.0213623
0.735;0.0192261
0.736;0.0170898
0.737;0.0149536
0.738;0.0125122
0.739;0.0100708
0.74;0.00823975
0.741;0.00671387
0.742;0.00518799
0.743;0.00366211
0.744;0.00183105
0.745;-0.000305176
0.746;-0.00274658
0.747;-0.00518799
0.748;-0.00762939
0.749;-0.0106812
0.75;-0.0137329
0.751;-0.0167847
0.752;-0.0198364
0.753;-0.022583
0.754;-0.0250244
0.755;-0.0262451
0.756;-0.0271606
0.757;-0.027771
0.758;-0.0280762
0.759;-0.0286865
0.76;-0.0292969
0.761;-0.0299072
0.762;-0.0299072
0.763;-0.0296021
0.764;-0.0289917
0.765;-0.0280762
0.766;-0.0268555
0.767;-0.0253296
0.768;-0.0234985
0.769;-0.0216675
0.77;-0.0204468
0.771;-0.0192261
0.772;-0.0186157
0.773;-0.0183105
0.774;-0.0186157
0.775;-0.0189209
0.776;-0.0192261
0.777;-0.0189209
0.778;-0.0183105
0.779;-0.0180054
0.78;-0.0180054
0.781;-0.0180054
0.782;-0.0183105
0.783;-0.0186157
0.784;-0.0192261
0.785;-0.0192261
0.786;-0.0192261
0.787;-0.0192261
0.788;-0.0195312
0.789;-0.0198364
0.79;-0.0201416
0.791;-0.0201416
0.792;-0.0201416
0.793;-0.0198364
0.794;-0.0198364
0.795;-0.0195312
0.796;-0.0192261
0.797;-0.0192261
0.798;-0.0192261
0.799;-0.0195312
0.8;-0.0195312
0.801;-0.0195312
0.802;-0.0198364
0.803;-0.0201416
0.804;-0.0201416
0.805;-0.0201416
0.806;-0.0201416
0.807;-0.0198364
0.808;-0.0195312
0.809;-0.0189209
0.81;-0.0183105
0.811;-0.017395
0.812;-0.0167847
0.813;-0.0158691
0.814;-0.0146484
0.815;-0.0137329
0.816;-0.0131226
0.817;-0.0125122
0.818;-0.012207
0.819;-0.0119019
0.82;-0.0119019
0.821;-0.0115967
0.822;-0.0112915
0.823;-0.0106812
0.824;-0.00946045
0.825;-0.00854492
0.826;-0.00732422
0.827;-0.00671387
0.828;-0.00640869
0.829;-0.00671387
0.83;-0.00732422
0.831;-0.00793457
0.832;-0.00854492
0.833;-0.00915527
0.834;-0.00915527
0.835;-0.00915527
0.836;-0.00854492
0.837;-0.00793457
0.838;-0.00732422
0.839;-0.00732422
0.84;-0.00762939
0.841;-0.00823975
0.842;-0.00915527
0.843;-0.0106812
0.844;-0.0119019
0.845;-0.0128174
0.846;-0.0137329
0.847;-0.0140381
0.848;-0.0143433
0.849;-0.0140381
0.85;-0.0140381
0.851;-0.0137329
0.852;-0.0131226
0.853;-0.012207
0.854;-0.0109863
0.855;-0.00976562
0.856;-0.00854492
0.857;-0.00732422
0.858;-0.00640869
0.859;-0.00549316
0.86;-0.00488281
0.861;-0.00488281
0.862;-0.00488281
0.863;-0.00518799
0.864;-0.00549316
0.865;-0.00579834
0.866;-0.00579834
0.867;-0.00610352
0.868;-0.00671387
0.869;-0.00762939
0.87;-0.00854492
0.871;-0.00946045
0.872;-0.010376
0.873;-0.0109863
0.874;-0.0115967
0.875;-0.0119019
0.876;-0.0119019
0.877;-0.0119019
0.878;-0.0119019
0.879;-0.0119019
0.88;-0.0119019
0.881;-0.012207
0.882;-0.012207
0.883;-0.0119019
0.884;-0.0109863
0.885;-0.00976562
0.886;-0.0088501
0.887;-0.00823975
0.888;-0.00793457
0.889;-0.00823975
0.89;-0.0088501
0.891;-0.00946045
0.892;-0.010376
0.893;-0.0112915
0.894;-0.0125122
0.895;-0.0140381
0.896;-0.0146484
0.897;-0.0149536
0.898;-0.0146484
0.899;-0.0137329
0.9;-0.0128174
0.901;-0.012207
0.902;-0.0115967
0.903;-0.0115967
0.904;-0.0112915
0.905;-0.0109863
0.906;-0.0106812
0.907;-0.010376
0.908;-0.0100708
0.909;-0.00976562
0.91;-0.00976562
0.911;-0.00976562
0.912;-0.010376
0.913;-0.0112915
0.914;-0.0128174
0.915;-0.0143433
0.916;-0.0158691
0.917;-0.0170898
0.918;-0.0186157
0.919;-0.0198364
0.92;-0.0210571
0.921;-0.022583
0.922;-0.0238037
0.923;-0.0247192
0.924;-0.0253296
0.925;-0.0256348
0.926;-0.0256348
0.927;-0.0256348
0.928;-0.0253296
0.929;-0.0247192
0.93;-0.0241089
0.931;-0.0238037
0.932;-0.0238037
0.933;-0.0238037
0.934;-0.0238037
0.935;-0.0234985
0.936;-0.0231934
0.937;-0.0228882
0.938;-0.0222778
0.939;-0.0216675
0.94;-0.0213623
0.941;-0.0213623
0.942;-0.0213623
0.943;-0.0216675
0.944;-0.0219727
0.945;-0.0222778
0.946;-0.0216675
0.947;-0.0210571
0.948;-0.0201416
0.949;-0.0186157
0.95;-0.0170898
0.951;-0.0152588
0.952;-0.0134277
0.953;-0.0112915
0.954;-0.0088501
0.955;-0.00610352
0.956;-0.00335693
0.957;-0.000915527
0.958;0.00152588
0.959;0.00396729
0.96;0.00610352
0.961;0.00762939
0.962;0.00915527
0.963;0.010376
0.964;0.0115967
0.965;0.0131226
0.966;0.0143433
0.967;0.015564
0.968;0.0161743
0.969;0.0167847
0.97;0.0170898
0.971;0.0170898
0.972;0.0167847
0.973;0.0161743
0.974;0.0152588
0.975;0.0146484
0.976;0.0140381
0.977;0.0137329
0.978;0.0131226
0.979;0.0125122
0.98;0.0112915
0.981;0.010376
0.982;0.00976562
0.983;0.00915527
0.984;0.0088501
0.985;0.0088501
0.986;0.0088501
0.987;0.00915527
0.988;0.00976562
0.989;0.0106812
0.99;0.0115967
0.991;0.0128174
0.992;0.0140381
0.993;0.0152588
0.994;0.0167847
0.995;0.0180054
0.996;0.0192261
0.997;0.0201416
0.998;0.0210571
0.999;0.0219727
1;0.0231934
1.001;0.0241089
1.002;0.0250244
1.003;0.0256348
1.004;0.0259399
1.005;0.0262451
1.006;0.0265503
1.007;0.0271606
1.008;0.0280762
1.009;0.0289917
1.01;0.0296021
1.011;0.0296021
1.012;0.0289917
1.013;0.027771
1.014;0.0262451
1.015;0.0253296
1.016;0.0241089
1.017;0.0228882
1.018;0.0210571
1.019;0.0192261
1.02;0.0177002
1.021;0.0161743
1.022;0.0146484
1.023;0.0125122
1.024;0.0100708
1.025;0.00701904
1.026;0.00396729
1.027;0.000305176
1.028;-0.00335693
1.029;-0.00732422
1.03;-0.0106812
1.031;-0.0140381
1.032;-0.0167847
1.033;-0.0195312
1.034;-0.0222778
1.035;-0.0244141
1.036;-0.0265503
1.037;-0.0283813
1.038;-0.0302124
1.039;-0.0314331
1.04;-0.0326538
1.041;-0.0332642
1.042;-0.0335693
1.043;-0.0335693
1.044;-0.0332642
1.045;-0.0332642
1.046;-0.0326538
1.047;-0.0320435
1.048;-0.0314331
1.049;-0.0308228
1.05;-0.0305176
1.051;-0.0299072
1.052;-0.0296021
1.053;-0.0289917
1.054;-0.0289917
1.055;-0.0286865
1.056;-0.0289917
1.057;-0.0289917
1.058;-0.0289917
1.059;-0.0289917
1.06;-0.0289917
1.061;-0.0286865
1.062;-0.0283813
1.063;-0.0283813
1.064;-0.0283813
1.065;-0.0289917
1.066;-0.0289917
1.067;-0.0292969
1.068;-0.0296021
1.069;-0.0296021
1.07;-0.0292969
1.071;-0.0289917
1.072;-0.0286865
1.073;-0.0286865
1.074;-0.0289917
1.075;-0.0292969
1.076;-0.0302124
1.077;-0.0311279
1.078;-0.0320435
1.079;-0.0326538
1.08;-0.0332642
1.081;-0.0338745
1.082;-0.0338745
1.083;-0.0335693
1.084;-0.0338745
1.085;-0.0341797
1.086;-0.0350952
1.087;-0.0360107
1.088;-0.0369263
1.089;-0.0378418
1.09;-0.0384521
1.091;-0.0387573
1.092;-0.0384521
1.093;-0.038147
1.094;-0.0378418
1.095;-0.0375366
1.096;-0.0372314
1.097;-0.0366211
1.098;-0.0360107
1.099;-0.0350952
1.1;-0.0341797
1.101;-0.0338745
1.102;-0.0338745
1.103;-0.0344849
1.104;-0.0354004
1.105;-0.0363159
1.106;-0.0372314
1.107;-0.0378418
1.108;-0.038147
1.109;-0.038147
1.11;-0.0378418
1.111;-0.0369263
1.112;-0.0354004
1.113;-0.0341797
1.114;-0.0332642
1.115;-0.0323486
1.116;-0.0317383
1.117;-0.0311279
1.118;-0.0305176
1.119;-0.0299072
1.12;-0.0289917
1.121;-0.0280762
1.122;-0.0274658
1.123;-0.0265503
1.124;-0.0262451
1.125;-0.0259399
1.126;-0.0259399
1.127;-0.0259399
1.128;-0.0259399
1.129;-0.0259399
1.13;-0.0262451
1.131;-0.0265503
1.132;-0.0271606
1.133;-0.027771
1.134;-0.0283813
1.135;-0.0289917
1.136;-0.0296021
1.137;-0.0305176
1.138;-0.0308228
1.139;-0.0311279
1.14;-0.0305176
1.141;-0.0292969
1.142;-0.0274658
1.143;-0.0247192
1.144;-0.0216675
1.145;-0.0180054
1.146;-0.0134277
1.147;-0.00823975
1.148;-0.00213623
1.149;0.00518799
1.15;0.0134277
1.151;0.0222778
1.152;0.0314331
1.153;0.0408936
1.154;0.0512695
1.155;0.0628662
1.156;0.0762939
1.157;0.0915527
1.158;0.108643
1.159;0.127563
1.16;0.147705
1.161;0.168762
1.162;0.190735
1.163;0.213318
1.164;0.236206
1.165;0.26001
1.166;0.284119
1.167;0.308533
1.168;0.332336
1.169;0.354614
1.17;0.374451
1.171;0.39093
1.172;0.403442
1.173;0.411682
1.174;0.415039
1.175;0.413818
1.176;0.40741
1.177;0.396423
1.178;0.380859
1.179;0.360413
1.18;0.335999
1.181;0.307922
1.182;0.276489
1.183;0.24292
1.184;0.20752
1.185;0.170898
1.186;0.133362
1.187;0.09552
1.188;0.0579834
1.189;0.0210571
1.19;-0.0140381
1.191;-0.0473022
1.192;-0.0775146
1.193;-0.10437
1.194;-0.127563
1.195;-0.147095
1.196;-0.162659
1.197;-0.175171
1.198;-0.184631
1.199;-0.19104
1.2;-0.195007
1.201;-0.196228
1.202;-0.195618
1.203;-0.193787
1.204;-0.19104
1.205;-0.187378
1.206;-0.183411
1.207;-0.178528
1.208;-0.173035
1.209;-0.167236
1.21;-0.160828
1.211;-0.153809
1.212;-0.14679
1.213;-0.139771
1.214;-0.132446
1.215;-0.125122
1.216;-0.117798
1.217;-0.110168
1.218;-0.102844
1.219;-0.0958252
1.22;-0.0891113
1.221;-0.0823975
1.222;-0.0759888
1.223;-0.0695801
1.224;-0.0634766
1.225;-0.0576782
1.226;-0.0527954
1.227;-0.0482178
1.228;-0.0445557
1.229;-0.0418091
1.23;-0.039978
1.231;-0.0390625
1.232;-0.0387573
1.233;-0.0384521
1.234;-0.0372314
1.235;-0.0350952
1.236;-0.0323486
1.237;-0.0289917
1.238;-0.0262451
1.239;-0.0241089
1.24;-0.0222778
1.241;-0.0210571
1.242;-0.0198364
1.243;-0.0192261
1.244;-0.0186157
1.245;-0.0180054
1.246;-0.017395
1.247;-0.0177002
1.248;-0.0180054
1.249;-0.0180054
1.25;-0.0177002
1.251;-0.0170898
1.252;-0.0164795
1.253;-0.0161743
1.254;-0.0161743
1.255;-0.0164795
1.256;-0.0170898
1.257;-0.0177002
1.258;-0.0180054
1.259;-0.0180054
1.26;-0.0180054
1.261;-0.0180054
1.262;-0.0180054
1.263;-0.0180054
1.264;-0.0180054
1.265;-0.0180054
1.266;-0.0180054
1.267;-0.0183105
1.268;-0.0183105
1.269;-0.0183105
1.27;-0.0177002
1.271;-0.017395
1.272;-0.0167847
1.273;-0.0161743
1.274;-0.015564
1.275;-0.0152588
1.276;-0.0152588
1.277;-0.0152588
1.278;-0.0149536
1.279;-0.0149536
1.28;-0.0146484
1.281;-0.0140381
1.282;-0.0134277
1.283;-0.012207
1.284;-0.0109863
1.285;-0.00946045
1.286;-0.00793457
1.287;-0.00701904
1.288;-0.00549316
1.289;-0.00396729
1.29;-0.00213623
1.291;-0.000610352
1.292;0.000915527
1.293;0.00213623
1.294;0.00305176
1.295;0.00335693
1.296;0.00366211
1.297;0.00366211
1.298;0.00366211
1.299;0.00366211
1.3;0.00305176
1.301;0.00274658
1.302;0.00213623
1.303;0.00213623
1.304;0.00213623
1.305;0.00213623
1.306;0.00213623
1.307;0.00183105
1.308;0.00213623
1.309;0.00213623
1.31;0.00274658
1.311;0.00335693
1.312;0.00366211
1.313;0.00396729
1.314;0.00396729
1.315;0.00396729
1.316;0.00427246
1.317;0.00457764
1.318;0.00518799
1.319;0.00579834
1.32;0.00640869
1.321;0.00671387
1.322;0.00671387
1.323;0.00671387
1.324;0.00671387
1.325;0.00640869
1.326;0.00610352
1.327;0.00579834
1.328;0.00579834
1.329;0.00579834
1.33;0.00549316
1.331;0.00518799
1.332;0.00488281
1.333;0.00457764
1.334;0.00427246
1.335;0.00457764
1.336;0.00488281
1.337;0.00549316
1.338;0.00640869
1.339;0.00823975
1.34;0.0106812
1.341;0.0134277
1.342;0.015564
1.343;0.017395
1.344;0.0186157
1.345;0.0198364
1.346;0.020752
1.347;0.0219727
1.348;0.0234985
1.349;0.0250244
1.35;0.0268555
1.351;0.0286865
1.352;0.0305176
1.353;0.0320435
1.354;0.032959
1.355;0.0335693
1.356;0.0335693
1.357;0.0332642
1.358;0.0326538
1.359;0.0317383
1.36;0.0308228
1.361;0.0299072
1.362;0.0292969
1.363;0.0283813
1.364;0.027771
1.365;0.0271606
1.366;0.0268555
1.367;0.0268555
1.368;0.0268555
1.369;0.0271606
1.37;0.0274658
1.371;0.027771
1.372;0.0280762
1.373;0.0286865
1.374;0.0292969
1.375;0.0302124
1.376;0.0314331
1.377;0.0326538
1.378;0.0335693
1.379;0.03479
1.38;0.0360107
1.381;0.0372314
1.382;0.038147
1.383;0.0390625
1.384;0.039978
1.385;0.0408936
1.386;0.0421143
1.387;0.043335
1.388;0.0445557
1.389;0.0454712
1.39;0.0460815
1.391;0.0466919
1.392;0.0469971
1.393;0.0473022
1.394;0.0473022
1.395;0.0469971
1.396;0.0469971
1.397;0.0469971
1.398;0.0469971
1.399;0.0473022
1.4;0.0479126
1.401;0.0488281
1.402;0.0500488
1.403;0.0512695
1.404;0.0521851
1.405;0.0531006
1.406;0.0534058
1.407;0.0534058
1.408;0.0534058
1.409;0.0537109
1.41;0.0537109
1.411;0.0537109
1.412;0.0534058
1.413;0.0531006
1.414;0.0534058
1.415;0.0540161
1.416;0.0549316
1.417;0.055542
1.418;0.0564575
1.419;0.0570679
1.42;0.0576782
1.421;0.0579834
1.422;0.0585938
1.423;0.0588989
1.424;0.0588989
1.425;0.0588989
1.426;0.0588989
1.427;0.0585938
1.428;0.0585938
1.429;0.0588989
1.43;0.0595093
1.431;0.06073
1.432;0.0619507
1.433;0.0628662
1.434;0.0637817
1.435;0.0643921
1.436;0.0650024
1.437;0.0656128
1.438;0.0665283
1.439;0.0668335
1.44;0.0674438
1.441;0.0674438
1.442;0.0674438
1.443;0.0665283
1.444;0.0656128
1.445;0.0650024
1.446;0.0650024
1.447;0.0653076
1.448;0.0656128
1.449;0.0653076
1.45;0.0646973
1.451;0.0634766
1.452;0.0616455
1.453;0.0598145
1.454;0.0576782
1.455;0.0561523
1.456;0.0546265
1.457;0.0534058
1.458;0.0515747
1.459;0.0491333
1.46;0.0463867
1.461;0.0436401
1.462;0.0411987
1.463;0.0393677
1.464;0.0378418
1.465;0.0360107
1.466;0.0341797
1.467;0.0317383
1.468;0.0292969
1.469;0.0268555
1.47;0.0241089
1.471;0.0216675
1.472;0.0189209
1.473;0.0164795
1.474;0.0140381
1.475;0.0115967
1.476;0.00946045
1.477;0.00701904
1.478;0.00396729
1.479;0.000610352
1.48;-0.00305176
1.481;-0.00640869
1.482;-0.00915527
1.483;-0.0112915
1.484;-0.0131226
1.485;-0.0143433
1.486;-0.015564
1.487;-0.0164795
1.488;-0.017395
1.489;-0.0186157
1.49;-0.0192261
1.491;-0.0195312
1.492;-0.0195312
1.493;-0.0198364
1.494;-0.0198364
1.495;-0.0201416
1.496;-0.0201416
1.497;-0.0201416
1.498;-0.0201416
1.499;-0.0204468
1.5;-0.020752
1.501;-0.0210571
1.502;-0.0216675
1.503;-0.022583
1.504;-0.0238037
1.505;-0.0253296
1.506;-0.0274658
1.507;-0.0299072
1.508;-0.0323486
1.509;-0.0344849
1.51;-0.0363159
1.511;-0.038147
1.512;-0.0393677
1.513;-0.0402832
1.514;-0.0408936
1.515;-0.0411987
1.516;-0.0415039
1.517;-0.0418091
1.518;-0.0418091
1.519;-0.0418091
1.52;-0.0415039
1.521;-0.0415039
1.522;-0.0415039
1.523;-0.0415039
1.524;-0.0411987
1.525;-0.0408936
1.526;-0.0408936
1.527;-0.0405884
1.528;-0.0402832
1.529;-0.0402832
1.53;-0.0405884
1.531;-0.0408936
1.532;-0.0415039
1.533;-0.0421143
1.534;-0.0424194
1.535;-0.0430298
1.536;-0.0430298
1.537;-0.043335
1.538;-0.0436401
1.539;-0.0439453
1.54;-0.0442505
1.541;-0.0442505
1.542;-0.0439453
1.543;-0.043335
1.544;-0.0424194
1.545;-0.0408936
1.546;-0.0396729
1.547;-0.0384521
1.548;-0.0372314
1.549;-0.0357056
1.55;-0.0335693
1.551;-0.0317383
1.552;-0.0299072
1.553;-0.0286865
1.554;-0.027771
1.555;-0.0274658
1.556;-0.027771
1.557;-0.0283813
1.558;-0.0286865
1.559;-0.0286865
1.56;-0.027771
1.561;-0.0262451
1.562;-0.0247192
1.563;-0.0238037
1.564;-0.0238037
1.565;-0.0244141
1.566;-0.0253296
1.567;-0.0265503
1.568;-0.027771
1.569;-0.0289917
1.57;-0.0296021
1.571;-0.0302124
1.572;-0.0308228
1.573;-0.0308228
1.574;-0.0305176
1.575;-0.0302124
1.576;-0.0296021
1.577;-0.0286865
1.578;-0.0280762
1.579;-0.0271606
1.58;-0.0262451
1.581;-0.0256348
1.582;-0.0250244
1.583;-0.0250244
1.584;-0.0250244
1.585;-0.0250244
1.586;-0.0247192
1.587;-0.0238037
1.588;-0.0228882
1.589;-0.0210571
1.59;-0.0189209
1.591;-0.0170898
1.592;-0.015564
1.593;-0.0149536
1.594;-0.0149536
1.595;-0.0149536
1.596;-0.0149536
1.597;-0.0143433
1.598;-0.0137329
1.599;-0.0131226
1.6;-0.0125122
1.601;-0.0119019
1.602;-0.0115967
1.603;-0.0109863
1.604;-0.0106812
1.605;-0.0100708
1.606;-0.00976562
1.607;-0.00946045
1.608;-0.00946045
1.609;-0.00946045
1.61;-0.0100708
1.611;-0.010376
1.612;-0.0106812
1.613;-0.0106812
1.614;-0.0106812
1.615;-0.0106812
1.616;-0.0106812
1.617;-0.0109863
1.618;-0.0119019
1.619;-0.0125122
1.62;-0.0134277
1.621;-0.0146484
1.622;-0.0161743
1.623;-0.0177002
1.624;-0.0195312
1.625;-0.020752
1.626;-0.0213623
1.627;-0.0213623
1.628;-0.0210571
1.629;-0.0201416
1.63;-0.0195312
1.631;-0.0189209
1.632;-0.0186157
1.633;-0.0183105
1.634;-0.0180054
1.635;-0.0177002
1.636;-0.017395
1.637;-0.0170898
1.638;-0.0167847
1.639;-0.0167847
1.64;-0.0164795
1.641;-0.0161743
1.642;-0.015564
1.643;-0.0149536
1.644;-0.0143433
1.645;-0.0140381
1.646;-0.0140381
1.647;-0.0143433
1.648;-0.0143433
1.649;-0.0146484
1.65;-0.015564
1.651;-0.0164795
1.652;-0.0180054
1.653;-0.0195312
1.654;-0.020752
1.655;-0.0213623
1.656;-0.0216675
1.657;-0.0219727
1.658;-0.0216675
1.659;-0.0210571
1.66;-0.0201416
1.661;-0.0198364
1.662;-0.0198364
1.663;-0.0204468
1.664;-0.020752
1.665;-0.0213623
1.666;-0.0213623
1.667;-0.0213623
1.668;-0.0216675
1.669;-0.0219727
1.67;-0.0222778
1.671;-0.0228882
1.672;-0.0234985
1.673;-0.0241089
1.674;-0.0247192
1.675;-0.0250244
1.676;-0.0250244
1.677;-0.0250244
1.678;-0.0250244
1.679;-0.0247192
1.68;-0.0250244
1.681;-0.0250244
1.682;-0.0253296
1.683;-0.0259399
1.684;-0.0262451
1.685;-0.0268555
1.686;-0.0274658
1.687;-0.027771
1.688;-0.0280762
1.689;-0.027771
1.69;-0.0271606
1.691;-0.0262451
1.692;-0.0253296
1.693;-0.0244141
1.694;-0.0231934
1.695;-0.0219727
1.696;-0.0210571
1.697;-0.0201416
1.698;-0.0192261
1.699;-0.0186157
1.7;-0.0183105
1.701;-0.0183105
1.702;-0.0186157
1.703;-0.0183105
1.704;-0.0177002
1.705;-0.0164795
1.706;-0.0149536
1.707;-0.0131226
1.708;-0.012207
1.709;-0.0115967
1.71;-0.0119019
1.711;-0.012207
1.712;-0.0128174
1.713;-0.0134277
1.714;-0.0137329
1.715;-0.0143433
1.716;-0.0149536
1.717;-0.0152588
1.718;-0.0158691
1.719;-0.0158691
1.72;-0.015564
1.721;-0.0146484
1.722;-0.0131226
1.723;-0.0112915
1.724;-0.0100708
1.725;-0.00915527
1.726;-0.0088501
1.727;-0.0088501
1.728;-0.0088501
1.729;-0.00915527
1.73;-0.00946045
1.731;-0.00976562
1.732;-0.0100708
1.733;-0.0100708
1.734;-0.010376
1.735;-0.0109863
1.736;-0.0112915
1.737;-0.0119019
1.738;-0.0125122
1.739;-0.0131226
1.74;-0.0131226
1.741;-0.0134277
1.742;-0.0140381
1.743;-0.0143433
1.744;-0.0146484
1.745;-0.0146484
1.746;-0.0146484
1.747;-0.0146484
1.748;-0.0146484
1.749;-0.0149536
1.75;-0.0152588
1.751;-0.015564
1.752;-0.015564
1.753;-0.015564
1.754;-0.015564
1.755;-0.015564
1.756;-0.0158691
1.757;-0.0164795
1.758;-0.017395
1.759;-0.0183105
1.76;-0.0198364
1.761;-0.0213623
1.762;-0.022583
1.763;-0.0234985
1.764;-0.0241089
1.765;-0.0244141
1.766;-0.0244141
1.767;-0.0241089
1.768;-0.0238037
1.769;-0.0228882
1.77;-0.0216675
1.771;-0.0204468
1.772;-0.0189209
1.773;-0.0170898
1.774;-0.0149536
1.775;-0.0128174
1.776;-0.010376
1.777;-0.00793457
1.778;-0.00518799
1.779;-0.00213623
1.78;0.000915527
1.781;0.00396729
1.782;0.00701904
1.783;0.00946045
1.784;0.0119019
1.785;0.0137329
1.786;0.0152588
1.787;0.0167847
1.788;0.0183105
1.789;0.0198364
1.79;0.0210571
1.791;0.0219727
1.792;0.022583
1.793;0.0231934
1.794;0.0238037
1.795;0.0241089
1.796;0.0244141
1.797;0.0244141
1.798;0.0244141
1.799;0.0241089
1.8;0.0238037
1.801;0.0234985
1.802;0.0231934
1.803;0.0228882
1.804;0.0222778
1.805;0.0216675
1.806;0.0213623
1.807;0.0213623
1.808;0.0210571
1.809;0.0210571
1.81;0.020752
1.811;0.020752
1.812;0.020752
1.813;0.0210571
1.814;0.020752
1.815;0.0195312
1.816;0.0183105
1.817;0.017395
1.818;0.0177002
1.819;0.0186157
1.82;0.0201416
1.821;0.0216675
1.822;0.0228882
1.823;0.0238037
1.824;0.0241089
1.825;0.0244141
1.826;0.0250244
1.827;0.0259399
1.828;0.0265503
1.829;0.0268555
1.83;0.0271606
1.831;0.0271606
1.832;0.0268555
1.833;0.0265503
1.834;0.0262451
1.835;0.0253296
1.836;0.0241089
1.837;0.022583
1.838;0.0210571
1.839;0.0189209
1.84;0.0167847
1.841;0.0140381
1.842;0.0112915
1.843;0.00854492
1.844;0.00579834
1.845;0.00335693
1.846;0.000915527
1.847;-0.0012207
1.848;-0.00305176
1.849;-0.00488281
1.85;-0.00671387
1.851;-0.0088501
1.852;-0.0109863
1.853;-0.0134277
1.854;-0.0152588
1.855;-0.0170898
1.856;-0.0189209
1.857;-0.0204468
1.858;-0.0216675
1.859;-0.0231934
1.86;-0.0247192
1.861;-0.0265503
1.862;-0.0286865
1.863;-0.0308228
1.864;-0.0332642
1.865;-0.0354004
1.866;-0.0375366
1.867;-0.0393677
1.868;-0.0411987
1.869;-0.0424194
1.87;-0.043335
1.871;-0.0442505
1.872;-0.045166
1.873;-0.0454712
1.874;-0.0460815
1.875;-0.0463867
1.876;-0.0463867
1.877;-0.0463867
1.878;-0.0460815
1.879;-0.0457764
1.88;-0.045166
1.881;-0.0445557
1.882;-0.043335
1.883;-0.0421143
1.884;-0.0411987
1.885;-0.0405884
1.886;-0.0396729
1.887;-0.0393677
1.888;-0.0387573
1.889;-0.0384521
1.89;-0.038147
1.891;-0.0375366
1.892;-0.0369263
1.893;-0.0366211
1.894;-0.0360107
1.895;-0.0357056
1.896;-0.0354004
1.897;-0.0350952
1.898;-0.0350952
1.899;-0.03479
1.9;-0.03479
1.901;-0.03479
1.902;-0.0350952
1.903;-0.0354004
1.904;-0.0354004
1.905;-0.0357056
1.906;-0.0360107
1.907;-0.0360107
1.908;-0.0357056
1.909;-0.0354004
1.91;-0.0350952
1.911;-0.0344849
1.912;-0.0338745
1.913;-0.032959
1.914;-0.0320435
1.915;-0.0308228
1.916;-0.0296021
1.917;-0.0283813
1.918;-0.0268555
1.919;-0.0247192
1.92;-0.0228882
1.921;-0.020752
1.922;-0.0195312
1.923;-0.0189209
1.924;-0.0186157
1.925;-0.0192261
1.926;-0.0201416
1.927;-0.0210571
1.928;-0.0219727
1.929;-0.0228882
1.93;-0.0238037
1.931;-0.0247192
1.932;-0.0262451
1.933;-0.027771
1.934;-0.0289917
1.935;-0.0302124
1.936;-0.0311279
1.937;-0.0317383
1.938;-0.0320435
1.939;-0.0317383
1.94;-0.0311279
1.941;-0.0308228
1.942;-0.0308228
1.943;-0.0308228
1.944;-0.0305176
1.945;-0.0292969
1.946;-0.027771
1.947;-0.0259399
1.948;-0.0244141
1.949;-0.0228882
1.95;-0.0213623
1.951;-0.0198364
1.952;-0.0180054
1.953;-0.0164795
1.954;-0.015564
1.955;-0.0149536
1.956;-0.0149536
1.957;-0.0158691
1.958;-0.0167847
1.959;-0.0180054
1.96;-0.0192261
1.961;-0.0198364
1.962;-0.0201416
1.963;-0.0198364
1.964;-0.0192261
1.965;-0.0180054
1.966;-0.0161743
1.967;-0.0143433
1.968;-0.0115967
1.969;-0.00854492
1.97;-0.00457764
1.971;0
1.972;0.00549316
1.973;0.0119019
1.974;0.0195312
1.975;0.0280762
1.976;0.0384521
1.977;0.0500488
1.978;0.0631714
1.979;0.078125
1.98;0.0949097
1.981;0.11322
1.982;0.133057
1.983;0.154419
1.984;0.177307
1.985;0.200806
1.986;0.22522
1.987;0.249939
1.988;0.275574
1.989;0.300903
1.99;0.325928
1.991;0.349731
1.992;0.371704
1.993;0.391235
1.994;0.407104
1.995;0.418701
1.996;0.42572
1.997;0.427856
1.998;0.424194
1.999;0.415039
2;0.400696
2.001;0.38147
2.002;0.357971
2.003;0.331116
2.004;0.301208
2.005;0.268555
2.006;0.233765
2.007;0.197144
2.008;0.158691
2.009;0.119629
2.01;0.0799561
2.011;0.0405884
2.012;0.00244141
2.013;-0.0335693
2.014;-0.0674438
2.015;-0.0976562
2.016;-0.124512
2.017;-0.147095
2.018;-0.16571
2.019;-0.180054
2.02;-0.190735
2.021;-0.198059
2.022;-0.202332
2.023;-0.203857
2.024;-0.203552
2.025;-0.201416
2.026;-0.197754
2.027;-0.192566
2.028;-0.185242
2.029;-0.177307
2.03;-0.168762
2.031;-0.160217
2.032;-0.151672
2.033;-0.143433
2.034;-0.134888
2.035;-0.126343
2.036;-0.117188
2.037;-0.107727
2.038;-0.0982666
2.039;-0.0894165
2.04;-0.0811768
2.041;-0.0738525
2.042;-0.0671387
2.043;-0.0610352
2.044;-0.0552368
2.045;-0.0500488
2.046;-0.0454712
2.047;-0.0418091
2.048;-0.0390625
2.049;-0.0369263
2.05;-0.0354004
2.051;-0.0344849
2.052;-0.0338745
2.053;-0.032959
2.054;-0.0320435
2.055;-0.0311279
2.056;-0.0302124
2.057;-0.0296021
2.058;-0.0289917
2.059;-0.0286865
2.06;-0.0283813
2.061;-0.0283813
2.062;-0.027771
2.063;-0.0268555
2.064;-0.0256348
2.065;-0.0238037
2.066;-0.0222778
2.067;-0.0204468
2.068;-0.0186157
2.069;-0.0170898
2.07;-0.0158691
2.071;-0.0146484
2.072;-0.0140381
2.073;-0.0137329
2.074;-0.0131226
2.075;-0.012207
2.076;-0.0109863
2.077;-0.00976562
2.078;-0.00854492
2.079;-0.00793457
2.08;-0.00762939
2.081;-0.00732422
2.082;-0.00671387
2.083;-0.00579834
2.084;-0.00518799
2.085;-0.00518799
2.086;-0.00518799
2.087;-0.00549316
2.088;-0.00518799
2.089;-0.00518799
2.09;-0.00488281
2.091;-0.00457764
2.092;-0.00457764
2.093;-0.00457764
2.094;-0.00457764
2.095;-0.00457764
2.096;-0.00427246
2.097;-0.00427246
2.098;-0.00396729
2.099;-0.00366211
2.1;-0.00335693
2.101;-0.00305176
2.102;-0.00274658
2.103;-0.00244141
2.104;-0.00244141
2.105;-0.00274658
2.106;-0.00274658
2.107;-0.00274658
2.108;-0.00244141
2.109;-0.00213623
2.11;-0.00183105
2.111;-0.0012207
2.112;-0.000915527
2.113;-0.000610352
2.114;-0.000610352
2.115;-0.000915527
2.116;-0.0012207
2.117;-0.00152588
2.118;-0.00152588
2.119;-0.0012207
2.12;-0.000915527
2.121;-0.000305176
2.122;0.000610352
2.123;0.0012207
2.124;0.00213623
2.125;0.00305176
2.126;0.00396729
2.127;0.00518799
2.128;0.00640869
2.129;0.00762939
2.13;0.0088501
2.131;0.00976562
2.132;0.0106812
2.133;0.0119019
2.134;0.0131226
2.135;0.0146484
2.136;0.0158691
2.137;0.0170898
2.138;0.017395
2.139;0.017395
2.14;0.0167847
2.141;0.0161743
2.142;0.015564
2.143;0.0152588
2.144;0.0149536
2.145;0.0152588
2.146;0.015564
2.147;0.015564
2.148;0.0149536
2.149;0.0140381
2.15;0.0128174
2.151;0.0115967
2.152;0.010376
2.153;0.00976562
2.154;0.00915527
2.155;0.00823975
2.156;0.00701904
2.157;0.00579834
2.158;0.00457764
2.159;0.00366211
2.16;0.00274658
2.161;0.00183105
2.162;0.000610352
2.163;0
2.164;-0.000305176
2.165;0.000305176
2.166;0.00183105
2.167;0.00396729
2.168;0.00610352
2.169;0.00793457
2.17;0.00915527
2.171;0.010376
2.172;0.0119019
2.173;0.0134277
2.174;0.015564
2.175;0.0177002
2.176;0.0195312
2.177;0.0213623
2.178;0.0228882
2.179;0.0241089
2.18;0.0250244
2.181;0.0259399
2.182;0.0265503
2.183;0.0268555
2.184;0.0265503
2.185;0.0256348
2.186;0.0241089
2.187;0.022583
2.188;0.0210571
2.189;0.0204468
2.19;0.0201416
2.191;0.0204468
2.192;0.020752
2.193;0.0213623
2.194;0.0219727
2.195;0.022583
2.196;0.0234985
2.197;0.0244141
2.198;0.0256348
2.199;0.0268555
2.2;0.0283813
2.201;0.0296021
2.202;0.0308228
2.203;0.0320435
2.204;0.0332642
2.205;0.0341797
2.206;0.03479
2.207;0.0354004
2.208;0.0354004
2.209;0.0354004
2.21;0.0350952
2.211;0.0350952
2.212;0.03479
2.213;0.0344849
2.214;0.0344849
2.215;0.0341797
2.216;0.0341797
2.217;0.0341797
2.218;0.0341797
2.219;0.0344849
2.22;0.03479
2.221;0.0354004
2.222;0.0363159
2.223;0.0375366
2.224;0.0387573
2.225;0.0402832
2.226;0.0415039
2.227;0.0427246
2.228;0.0439453
2.229;0.0454712
2.23;0.0466919
2.231;0.0479126
2.232;0.0491333
2.233;0.0506592
2.234;0.0521851
2.235;0.0534058
2.236;0.0549316
2.237;0.0564575
2.238;0.0576782
2.239;0.0588989
2.24;0.0601196
2.241;0.06073
2.242;0.0613403
2.243;0.0616455
2.244;0.0622559
2.245;0.062561
2.246;0.0631714
2.247;0.0634766
2.248;0.0637817
2.249;0.0637817
2.25;0.0640869
2.251;0.0643921
2.252;0.0653076
2.253;0.0665283
2.254;0.0674438
2.255;0.0683594
2.256;0.0689697
2.257;0.0695801
2.258;0.0701904
2.259;0.0704956
2.26;0.0708008
2.261;0.0704956
2.262;0.0704956
2.263;0.0708008
2.264;0.071106
2.265;0.071106
2.266;0.0708008
2.267;0.0695801
2.268;0.067749
2.269;0.0653076
2.27;0.0628662
2.271;0.0601196
2.272;0.057373
2.273;0.0549316
2.274;0.0527954
2.275;0.0506592
2.276;0.0488281
2.277;0.0469971
2.278;0.0454712
2.279;0.0439453
2.28;0.0427246
2.281;0.0415039
2.282;0.0396729
2.283;0.038147
2.284;0.0378418
2.285;0.0387573
2.286;0.039978
2.287;0.0415039
2.288;0.0424194
2.289;0.0430298
2.29;0.0430298
2.291;0.0424194
2.292;0.0415039
2.293;0.039978
2.294;0.0384521
2.295;0.0360107
2.296;0.0332642
2.297;0.0302124
2.298;0.0268555
2.299;0.0234985
2.3;0.0198364
2.301;0.0161743
2.302;0.0125122
2.303;0.0088501
2.304;0.00549316
2.305;0.00244141
2.306;-0.000610352
2.307;-0.00335693
2.308;-0.00610352
2.309;-0.00854492
2.31;-0.0106812
2.311;-0.0128174
2.312;-0.0143433
2.313;-0.0158691
2.314;-0.0170898
2.315;-0.0180054
2.316;-0.0189209
2.317;-0.0195312
2.318;-0.0204468
2.319;-0.0213623
2.32;-0.022583
2.321;-0.0241089
2.322;-0.0262451
2.323;-0.0283813
2.324;-0.0305176
2.325;-0.0326538
2.326;-0.0344849
2.327;-0.0360107
2.328;-0.0372314
2.329;-0.0378418
2.33;-0.0387573
2.331;-0.0390625
2.332;-0.0396729
2.333;-0.0405884
2.334;-0.0408936
2.335;-0.0411987
2.336;-0.0408936
2.337;-0.039978
2.338;-0.0384521
2.339;-0.0363159
2.34;-0.0341797
2.341;-0.0320435
2.342;-0.0308228
2.343;-0.0299072
2.344;-0.0299072
2.345;-0.0299072
2.346;-0.0299072
2.347;-0.0302124
2.348;-0.0305176
2.349;-0.0311279
2.35;-0.0320435
2.351;-0.032959
2.352;-0.0338745
2.353;-0.03479
2.354;-0.0357056
2.355;-0.0366211
2.356;-0.0372314
2.357;-0.0378418
2.358;-0.038147
2.359;-0.0384521
2.36;-0.0387573
2.361;-0.0390625
2.362;-0.0393677
2.363;-0.0390625
2.364;-0.0387573
2.365;-0.038147
2.366;-0.0375366
2.367;-0.0369263
2.368;-0.0366211
2.369;-0.0363159
2.37;-0.0360107
2.371;-0.0354004
2.372;-0.0341797
2.373;-0.0323486
2.374;-0.0308228
2.375;-0.0299072
2.376;-0.0292969
2.377;-0.0292969
2.378;-0.0292969
2.379;-0.0292969
2.38;-0.0292969
2.381;-0.0289917
2.382;-0.0283813
2.383;-0.0271606
2.384;-0.0256348
2.385;-0.0241089
2.386;-0.022583
2.387;-0.0213623
2.388;-0.0198364
2.389;-0.0186157
2.39;-0.017395
2.391;-0.0164795
2.392;-0.0158691
2.393;-0.0158691
2.394;-0.0161743
2.395;-0.0158691
2.396;-0.0149536
2.397;-0.0134277
2.398;-0.0115967
2.399;-0.0100708
2.4;-0.00915527
2.401;-0.00854492
2.402;-0.00823975
2.403;-0.00854492
2.404;-0.0088501
2.405;-0.0088501
2.406;-0.00854492
2.407;-0.00823975
2.408;-0.00793457
2.409;-0.00793457
2.41;-0.00762939
2.411;-0.00762939
2.412;-0.00762939
2.413;-0.00732422
2.414;-0.00701904
2.415;-0.00640869
2.416;-0.00579834
2.417;-0.00549316
2.418;-0.00549316
2.419;-0.00549316
2.42;-0.00610352
2.421;-0.00671387
2.422;-0.00762939
2.423;-0.00823975
2.424;-0.00854492
2.425;-0.00854492
2.426;-0.00854492
2.427;-0.00823975
2.428;-0.00823975
2.429;-0.00823975
2.43;-0.00823975
2.431;-0.0088501
2.432;-0.00915527
2.433;-0.00976562
2.434;-0.0100708
2.435;-0.0100708
2.436;-0.0100708
2.437;-0.00976562
2.438;-0.00946045
2.439;-0.00915527
2.44;-0.0088501
2.441;-0.0088501
2.442;-0.00854492
2.443;-0.00854492
2.444;-0.00823975
2.445;-0.00793457
2.446;-0.00762939
2.447;-0.00732422
2.448;-0.00762939
2.449;-0.00793457
2.45;-0.00823975
2.451;-0.00854492
2.452;-0.0088501
2.453;-0.00915527
2.454;-0.00976562
2.455;-0.00976562
2.456;-0.00946045
2.457;-0.00915527
2.458;-0.00915527
2.459;-0.00915527
2.46;-0.00976562
2.461;-0.0100708
2.462;-0.010376
2.463;-0.0106812
2.464;-0.010376
2.465;-0.00946045
2.466;-0.00854492
2.467;-0.00762939
2.468;-0.00701904
2.469;-0.00701904
2.47;-0.00732422
2.471;-0.00793457
2.472;-0.00823975
2.473;-0.00823975
2.474;-0.00854492
2.475;-0.0088501
2.476;-0.00915527
2.477;-0.0100708
2.478;-0.0106812
2.479;-0.0115967
2.48;-0.0125122
2.481;-0.0134277
2.482;-0.0146484
2.483;-0.015564
2.484;-0.0164795
2.485;-0.0177002
2.486;-0.0189209
2.487;-0.0204468
2.488;-0.0213623
2.489;-0.0222778
2.49;-0.0222778
2.491;-0.0222778
2.492;-0.0219727
2.493;-0.0216675
2.494;-0.0213623
2.495;-0.0216675
2.496;-0.0222778
2.497;-0.0228882
2.498;-0.0231934
2.499;-0.0231934
2.5;-0.0228882
2.501;-0.0222778
2.502;-0.0216675
2.503;-0.0210571
2.504;-0.020752
2.505;-0.0204468
2.506;-0.0201416
2.507;-0.0198364
2.508;-0.0195312
2.509;-0.0192261
2.51;-0.0189209
2.511;-0.0186157
2.512;-0.0183105
2.513;-0.0180054
2.514;-0.0183105
2.515;-0.0186157
2.516;-0.0192261
2.517;-0.0198364
2.518;-0.0204468
2.519;-0.0210571
2.52;-0.0219727
2.521;-0.0222778
2.522;-0.0228882
2.523;-0.0231934
2.524;-0.0234985
2.525;-0.0234985
2.526;-0.0234985
2.527;-0.0234985
2.528;-0.0234985
2.529;-0.0234985
2.53;-0.0238037
2.531;-0.0241089
2.532;-0.0253296
2.533;-0.0259399
2.534;-0.0259399
2.535;-0.0247192
2.536;-0.022583
2.537;-0.0204468
2.538;-0.0183105
2.539;-0.0167847
2.54;-0.015564
2.541;-0.0146484
2.542;-0.0140381
2.543;-0.0134277
2.544;-0.0131226
2.545;-0.0131226
2.546;-0.0131226
2.547;-0.0134277
2.548;-0.0137329
2.549;-0.0143433
2.55;-0.0146484
2.551;-0.0146484
2.552;-0.0146484
2.553;-0.0149536
2.554;-0.0158691
2.555;-0.017395
2.556;-0.0189209
2.557;-0.0204468
2.558;-0.0216675
2.559;-0.022583
2.56;-0.0228882
2.561;-0.0231934
2.562;-0.0231934
2.563;-0.0231934
2.564;-0.0231934
2.565;-0.0231934
2.566;-0.0228882
2.567;-0.022583
2.568;-0.0219727
2.569;-0.0210571
2.57;-0.0204468
2.571;-0.0198364
2.572;-0.0192261
2.573;-0.0186157
2.574;-0.0186157
2.575;-0.0183105
2.576;-0.0186157
2.577;-0.0186157
2.578;-0.0189209
2.579;-0.0192261
2.58;-0.0198364
2.581;-0.0201416
2.582;-0.020752
2.583;-0.0216675
2.584;-0.0219727
2.585;-0.022583
2.586;-0.022583
2.587;-0.022583
2.588;-0.022583
2.589;-0.0222778
2.59;-0.0216675
2.591;-0.0213623
2.592;-0.020752
2.593;-0.0201416
2.594;-0.0195312
2.595;-0.0189209
2.596;-0.0180054
2.597;-0.017395
2.598;-0.0164795
2.599;-0.0158691
2.6;-0.0149536
2.601;-0.0137329
2.602;-0.0128174
2.603;-0.0119019
2.604;-0.0106812
2.605;-0.00946045
2.606;-0.00823975
2.607;-0.00701904
2.608;-0.00610352
2.609;-0.00549316
2.61;-0.00488281
2.611;-0.00488281
2.612;-0.00488281
2.613;-0.00457764
2.614;-0.00427246
2.615;-0.00335693
2.616;-0.00244141
2.617;-0.00152588
2.618;-0.0012207
2.619;-0.000915527
2.62;-0.00152588
2.621;-0.00213623
2.622;-0.00305176
2.623;-0.00427246
2.624;-0.00549316
2.625;-0.00701904
2.626;-0.00854492
2.627;-0.010376
2.628;-0.012207
2.629;-0.0137329
2.63;-0.0146484
2.631;-0.0152588
2.632;-0.015564
2.633;-0.0158691
2.634;-0.0158691
2.635;-0.0158691
2.636;-0.0158691
2.637;-0.0158691
2.638;-0.0152588
2.639;-0.0143433
2.64;-0.0131226
2.641;-0.012207
2.642;-0.0115967
2.643;-0.0112915
2.644;-0.0109863
2.645;-0.010376
2.646;-0.00976562
2.647;-0.00854492
2.648;-0.00762939
2.649;-0.00671387
2.65;-0.00549316
2.651;-0.00427246
2.652;-0.00335693
2.653;-0.00274658
2.654;-0.00213623
2.655;-0.0012207
2.656;0.000305176
2.657;0.00244141
2.658;0.00518799
2.659;0.00793457
2.66;0.0106812
2.661;0.0134277
2.662;0.0158691
2.663;0.0183105
2.664;0.0201416
2.665;0.0216675
2.666;0.0228882
2.667;0.0241089
2.668;0.0253296
2.669;0.0262451
2.67;0.0262451
2.671;0.0259399
2.672;0.0247192
2.673;0.0234985
2.674;0.0222778
2.675;0.0210571
2.676;0.0198364
2.677;0.0183105
2.678;0.0158691
2.679;0.0137329
2.68;0.0119019
2.681;0.0106812
2.682;0.0100708
2.683;0.0100708
2.684;0.0100708
2.685;0.010376
2.686;0.0112915
2.687;0.0128174
2.688;0.0149536
2.689;0.017395
2.69;0.0198364
2.691;0.0219727
2.692;0.0238037
2.693;0.0250244
2.694;0.0262451
2.695;0.0271606
2.696;0.027771
2.697;0.0283813
2.698;0.0283813
2.699;0.0280762
2.7;0.0274658
2.701;0.0268555
2.702;0.0256348
2.703;0.0244141
2.704;0.0231934
2.705;0.0216675
2.706;0.0201416
2.707;0.0192261
2.708;0.0180054
2.709;0.017395
2.71;0.0164795
2.711;0.0152588
2.712;0.0143433
2.713;0.0131226
2.714;0.012207
2.715;0.0112915
2.716;0.010376
2.717;0.00946045
2.718;0.00854492
2.719;0.00762939
2.72;0.00671387
2.721;0.00579834
2.722;0.00457764
2.723;0.00335693
2.724;0.00183105
2.725;0.000610352
2.726;-0.000915527
2.727;-0.00213623
2.728;-0.00335693
2.729;-0.00457764
2.73;-0.00579834
2.731;-0.00701904
2.732;-0.00793457
2.733;-0.0088501
2.734;-0.00976562
2.735;-0.0106812
2.736;-0.0112915
2.737;-0.0115967
2.738;-0.0115967
2.739;-0.0112915
2.74;-0.0112915
2.741;-0.0115967
2.742;-0.012207
2.743;-0.0137329
2.744;-0.015564
2.745;-0.0180054
2.746;-0.020752
2.747;-0.0231934
2.748;-0.0253296
2.749;-0.0274658
2.75;-0.0292969
2.751;-0.0317383
2.752;-0.0338745
2.753;-0.0363159
2.754;-0.0387573
2.755;-0.0408936
2.756;-0.0430298
2.757;-0.0445557
2.758;-0.0454712
2.759;-0.0460815
2.76;-0.0463867
2.761;-0.0466919
2.762;-0.0460815
2.763;-0.045166
2.764;-0.0436401
2.765;-0.0421143
2.766;-0.0408936
2.767;-0.0393677
2.768;-0.0375366
2.769;-0.0354004
2.77;-0.032959
2.771;-0.0308228
2.772;-0.0283813
2.773;-0.0262451
2.774;-0.0238037
2.775;-0.0219727
2.776;-0.0201416
2.777;-0.0189209
2.778;-0.0180054
2.779;-0.0164795
2.78;-0.0146484
2.781;-0.012207
2.782;-0.010376
2.783;-0.00915527
2.784;-0.00823975
2.785;-0.00793457
2.786;-0.00793457
2.787;-0.00793457
2.788;-0.00793457
2.789;-0.00793457
2.79;-0.00823975
2.791;-0.00854492
2.792;-0.0088501
2.793;-0.0088501
2.794;-0.00915527
2.795;-0.00946045
2.796;-0.010376
2.797;-0.0115967
2.798;-0.0131226
2.799;-0.0149536
2.8;-0.0164795
2.801;-0.017395
2.802;-0.0177002
2.803;-0.0177002
2.804;-0.0170898
2.805;-0.0161743
2.806;-0.015564
2.807;-0.0152588
2.808;-0.0152588
2.809;-0.0152588
2.81;-0.0152588
2.811;-0.0149536
2.812;-0.0146484
2.813;-0.0143433
2.814;-0.0140381
2.815;-0.0137329
2.816;-0.0134277
2.817;-0.0134277
2.818;-0.0137329
2.819;-0.0140381
2.82;-0.0146484
2.821;-0.015564
2.822;-0.0164795
2.823;-0.017395
2.824;-0.0183105
2.825;-0.0192261
2.826;-0.0201416
2.827;-0.020752
2.828;-0.0213623
2.829;-0.0213623
2.83;-0.0213623
2.831;-0.0213623
2.832;-0.0210571
2.833;-0.0204468
2.834;-0.0201416
2.835;-0.0192261
2.836;-0.0180054
2.837;-0.0164795
2.838;-0.0140381
2.839;-0.0112915
2.84;-0.00793457
2.841;-0.00396729
2.842;0.000305176
2.843;0.00518799
2.844;0.010376
2.845;0.0161743
2.846;0.022583
2.847;0.0299072
2.848;0.038147
2.849;0.0476074
2.85;0.0582886
2.851;0.0704956
2.852;0.0842285
2.853;0.0997925
2.854;0.116882
2.855;0.135803
2.856;0.15564
2.857;0.177002
2.858;0.199585
2.859;0.223083
2.86;0.247192
2.861;0.272217
2.862;0.297241
2.863;0.32196
2.864;0.346069
2.865;0.368347
2.866;0.388489
2.867;0.404968
2.868;0.418091
2.869;0.426636
2.87;0.430298
2.871;0.429077
2.872;0.422668
2.873;0.411072
2.874;0.394897
2.875;0.37384
2.876;0.349121
2.877;0.320435
2.878;0.288696
2.879;0.253906
2.88;0.21698
2.881;0.178223
2.882;0.138855
2.883;0.0985718
2.884;0.0588989
2.885;0.0198364
2.886;-0.0177002
2.887;-0.0527954
2.888;-0.0845337
2.889;-0.112915
2.89;-0.137634
2.891;-0.158386
2.892;-0.175171
2.893;-0.188293
2.894;-0.197754
2.895;-0.204163
2.896;-0.20752
2.897;-0.208435
2.898;-0.207214
2.899;-0.204468
2.9;-0.199585
2.901;-0.193787
2.902;-0.186768
2.903;-0.178833
2.904;-0.169678
2.905;-0.159912
2.906;-0.149231
2.907;-0.13855
2.908;-0.128174
2.909;-0.118103
2.91;-0.108337
2.911;-0.098877
2.912;-0.0891113
2.913;-0.0796509
2.914;-0.0701904
2.915;-0.0613403
2.916;-0.0531006
2.917;-0.0457764
2.918;-0.0396729
2.919;-0.0350952
2.92;-0.0314331
2.921;-0.0289917
2.922;-0.0274658
2.923;-0.0265503
2.924;-0.0262451
2.925;-0.0262451
2.926;-0.0268555
2.927;-0.0274658
2.928;-0.0286865
2.929;-0.0302124
2.93;-0.0317383
2.931;-0.0335693
2.932;-0.0354004
2.933;-0.0369263
2.934;-0.038147
2.935;-0.0390625
2.936;-0.0393677
2.937;-0.0393677
2.938;-0.0387573
2.939;-0.0378418
2.94;-0.0366211
2.941;-0.03479
2.942;-0.0326538
2.943;-0.0302124
2.944;-0.027771
2.945;-0.0247192
2.946;-0.0219727
2.947;-0.0189209
2.948;-0.0161743
2.949;-0.0140381
2.95;-0.012207
2.951;-0.0109863
2.952;-0.010376
2.953;-0.00946045
2.954;-0.0088501
2.955;-0.00823975
2.956;-0.00793457
2.957;-0.00762939
2.958;-0.00762939
2.959;-0.00793457
2.96;-0.00793457
2.961;-0.00823975
2.962;-0.0088501
2.963;-0.00946045
2.964;-0.00976562
2.965;-0.010376
2.966;-0.0112915
2.967;-0.0119019
2.968;-0.012207
2.969;-0.012207
2.97;-0.0119019
2.971;-0.0109863
2.972;-0.00976562
2.973;-0.00793457
2.974;-0.00610352
2.975;-0.00457764
2.976;-0.00366211
2.977;-0.00335693
2.978;-0.00335693
2.979;-0.00305176
2.98;-0.00305176
2.981;-0.00305176
2.982;-0.00274658
2.983;-0.00244141
2.984;-0.00213623
2.985;-0.00183105
2.986;-0.00152588
2.987;-0.00152588
2.988;-0.00152588
2.989;-0.0012207
2.99;-0.0012207
2.991;-0.0012207
2.992;-0.0012207
2.993;-0.00183105
2.994;-0.00244141
2.995;-0.00305176
2.996;-0.00335693
2.997;-0.00396729
2.998;-0.00396729
2.999;-0.00396729
3;-0.00396729
3.001;-0.00366211
3.002;-0.00366211
3.003;-0.00396729
3.004;-0.00427246
3.005;-0.00457764
3.006;-0.00488281
3.007;-0.00518799
3.008;-0.00518799
3.009;-0.00518799
3.01;-0.00488281
3.011;-0.00488281
3.012;-0.00488281
3.013;-0.00396729
3.014;-0.00274658
3.015;-0.000915527
3.016;0.000915527
3.017;0.00274658
3.018;0.00457764
3.019;0.00610352
3.02;0.00732422
3.021;0.00915527
3.022;0.0106812
3.023;0.012207
3.024;0.0137329
3.025;0.0149536
3.026;0.0158691
3.027;0.0170898
3.028;0.0177002
3.029;0.0180054
3.03;0.0180054
3.031;0.0177002
3.032;0.0170898
3.033;0.0167847
3.034;0.0164795
3.035;0.0161743
3.036;0.0161743
3.037;0.0158691
3.038;0.0158691
3.039;0.015564
3.04;0.0149536
3.041;0.0149536
3.042;0.0146484
3.043;0.0149536
3.044;0.0152588
3.045;0.0161743
3.046;0.0170898
3.047;0.0180054
3.048;0.0186157
3.049;0.0189209
3.05;0.0195312
3.051;0.0201416
3.052;0.020752
3.053;0.0213623
3.054;0.0216675
3.055;0.0219727
3.056;0.0222778
3.057;0.0222778
3.058;0.0222778
3.059;0.0219727
3.06;0.0219727
3.061;0.0216675
3.062;0.0216675
3.063;0.0216675
3.064;0.0216675
3.065;0.0216675
3.066;0.0216675
3.067;0.0219727
3.068;0.0219727
3.069;0.0222778
3.07;0.022583
3.071;0.0231934
3.072;0.0234985
3.073;0.0244141
3.074;0.0256348
3.075;0.0265503
3.076;0.0280762
3.077;0.0292969
3.078;0.0314331
3.079;0.0338745
3.08;0.0369263
3.081;0.039978
3.082;0.0424194
3.083;0.0445557
3.084;0.0460815
3.085;0.0473022
3.086;0.0485229
3.087;0.050354
3.088;0.0521851
3.089;0.0543213
3.09;0.0564575
3.091;0.0576782
3.092;0.0579834
3.093;0.0579834
3.094;0.0579834
3.095;0.057373
3.096;0.0564575
3.097;0.0552368
3.098;0.0540161
3.099;0.0524902
3.1;0.0512695
3.101;0.0497437
3.102;0.0482178
3.103;0.0466919
3.104;0.0457764
3.105;0.0448608
3.106;0.0448608
3.107;0.045166
3.108;0.0454712
3.109;0.0457764
3.11;0.0463867
3.111;0.0466919
3.112;0.0473022
3.113;0.0482178
3.114;0.0494385
3.115;0.0512695
3.116;0.0531006
3.117;0.0552368
3.118;0.0579834
3.119;0.06073
3.12;0.0634766
3.121;0.0662231
3.122;0.0683594
3.123;0.0704956
3.124;0.0717163
3.125;0.0726318
3.126;0.072937
3.127;0.0732422
3.128;0.072937
3.129;0.0726318
3.13;0.0723267
3.131;0.0720215
3.132;0.0714111
3.133;0.0708008
3.134;0.0704956
3.135;0.0698853
3.136;0.0695801
3.137;0.0689697
3.138;0.0683594
3.139;0.0674438
3.14;0.0665283
3.141;0.0650024
3.142;0.0634766
3.143;0.0622559
3.144;0.0613403
3.145;0.0610352
3.146;0.0610352
3.147;0.0613403
3.148;0.0619507
3.149;0.0622559
3.15;0.062561
3.151;0.0619507
3.152;0.06073
3.153;0.0588989
3.154;0.0567627
3.155;0.0546265
3.156;0.0521851
3.157;0.0494385
3.158;0.0466919
3.159;0.0436401
3.16;0.0408936
3.161;0.038147
3.162;0.0357056
3.163;0.032959
3.164;0.0302124
3.165;0.0271606
3.166;0.0241089
3.167;0.0210571
3.168;0.0177002
3.169;0.0146484
3.17;0.0125122
3.171;0.0109863
3.172;0.0100708
3.173;0.00915527
3.174;0.00854492
3.175;0.00793457
3.176;0.00701904
3.177;0.00671387
3.178;0.00640869
3.179;0.00640869
3.18;0.00610352
3.181;0.00518799
3.182;0.00396729
3.183;0.00244141
3.184;0.000305176
3.185;-0.00183105
3.186;-0.00457764
3.187;-0.00793457
3.188;-0.0112915
3.189;-0.0149536
3.19;-0.0180054
3.191;-0.0213623
3.192;-0.0247192
3.193;-0.0274658
3.194;-0.0296021
3.195;-0.0314331
3.196;-0.032959
3.197;-0.0344849
3.198;-0.0360107
3.199;-0.0369263
3.2;-0.0375366
3.201;-0.0378418
3.202;-0.0375366
3.203;-0.0372314
3.204;-0.0369263
3.205;-0.0363159
3.206;-0.0360107
3.207;-0.0350952
3.208;-0.0344849
3.209;-0.0341797
3.21;-0.0341797
3.211;-0.0341797
3.212;-0.0344849
3.213;-0.0344849
3.214;-0.0344849
3.215;-0.0344849
3.216;-0.0350952
3.217;-0.0363159
3.218;-0.0375366
3.219;-0.0396729
3.22;-0.0415039
3.221;-0.043335
3.222;-0.0445557
3.223;-0.0454712
3.224;-0.0454712
3.225;-0.0454712
3.226;-0.0454712
3.227;-0.045166
3.228;-0.045166
3.229;-0.045166
3.23;-0.0454712
3.231;-0.0457764
3.232;-0.0460815
3.233;-0.0460815
3.234;-0.0460815
3.235;-0.0457764
3.236;-0.0454712
3.237;-0.0448608
3.238;-0.0439453
3.239;-0.0430298
3.24;-0.0418091
3.241;-0.0408936
3.242;-0.0396729
3.243;-0.0390625
3.244;-0.038147
3.245;-0.0375366
3.246;-0.0369263
3.247;-0.0360107
3.248;-0.0350952
3.249;-0.0335693
3.25;-0.0323486
3.251;-0.0311279
3.252;-0.0296021
3.253;-0.0283813
3.254;-0.0271606
3.255;-0.0265503
3.256;-0.0259399
3.257;-0.0256348
3.258;-0.0253296
3.259;-0.0253296
3.26;-0.0250244
3.261;-0.0244141
3.262;-0.0231934
3.263;-0.0219727
3.264;-0.020752
3.265;-0.0192261
3.266;-0.0183105
3.267;-0.0180054
3.268;-0.0177002
3.269;-0.017395
3.27;-0.0161743
3.271;-0.0152588
3.272;-0.0146484
3.273;-0.0146484
3.274;-0.0146484
3.275;-0.0140381
3.276;-0.0134277
3.277;-0.0131226
3.278;-0.0128174
3.279;-0.0128174
3.28;-0.0134277
3.281;-0.0140381
3.282;-0.0152588
3.283;-0.0164795
3.284;-0.0177002
3.285;-0.0186157
3.286;-0.0198364
3.287;-0.020752
3.288;-0.0216675
3.289;-0.0219727
3.29;-0.0222778
3.291;-0.0219727
3.292;-0.0213623
3.293;-0.020752
3.294;-0.0198364
3.295;-0.0195312
3.296;-0.0189209
3.297;-0.0186157
3.298;-0.0177002
3.299;-0.0164795
3.3;-0.0152588
3.301;-0.0140381
3.302;-0.0128174
3.303;-0.0115967
3.304;-0.00976562
3.305;-0.00793457
3.306;-0.00610352
3.307;-0.00518799
3.308;-0.00488281
3.309;-0.00518799
3.31;-0.00549316
3.311;-0.00549316
3.312;-0.00579834
3.313;-0.00640869
3.314;-0.00671387
3.315;-0.00701904
3.316;-0.00732422
3.317;-0.00732422
3.318;-0.00762939
3.319;-0.00823975
3.32;-0.00946045
3.321;-0.0106812
3.322;-0.0119019
3.323;-0.0128174
3.324;-0.0134277
3.325;-0.0140381
3.326;-0.0149536
3.327;-0.0158691
3.328;-0.0164795
3.329;-0.0167847
3.33;-0.0164795
3.331;-0.0158691
3.332;-0.0149536
3.333;-0.0140381
3.334;-0.0131226
3.335;-0.0125122
3.336;-0.012207
3.337;-0.0125122
3.338;-0.0128174
3.339;-0.0131226
3.34;-0.0125122
3.341;-0.0119019
3.342;-0.0112915
3.343;-0.0109863
3.344;-0.0112915
3.345;-0.0115967
3.346;-0.0125122
3.347;-0.0137329
3.348;-0.0152588
3.349;-0.0167847
3.35;-0.0183105
3.351;-0.0195312
3.352;-0.0204468
3.353;-0.0213623
3.354;-0.0219727
3.355;-0.022583
3.356;-0.0231934
3.357;-0.0238037
3.358;-0.0241089
3.359;-0.0241089
3.36;-0.0244141
3.361;-0.0247192
3.362;-0.0250244
3.363;-0.0244141
3.364;-0.0234985
3.365;-0.0222778
3.366;-0.0210571
3.367;-0.0201416
3.368;-0.0189209
3.369;-0.0180054
3.37;-0.0170898
3.371;-0.0161743
3.372;-0.015564
3.373;-0.0149536
3.374;-0.0143433
3.375;-0.0137329
3.376;-0.0134277
3.377;-0.0137329
3.378;-0.0140381
3.379;-0.0146484
3.38;-0.0152588
3.381;-0.0158691
3.382;-0.0164795
3.383;-0.0167847
3.384;-0.0170898
3.385;-0.0177002
3.386;-0.0183105
3.387;-0.0186157
3.388;-0.0189209
3.389;-0.0195312
3.39;-0.0201416
3.391;-0.020752
3.392;-0.0219727
3.393;-0.0228882
3.394;-0.0238037
3.395;-0.0244141
3.396;-0.0247192
3.397;-0.0247192
3.398;-0.0244141
3.399;-0.0241089
3.4;-0.0238037
3.401;-0.0234985
3.402;-0.0231934
3.403;-0.0231934
3.404;-0.0228882
3.405;-0.0222778
3.406;-0.0210571
3.407;-0.0195312
3.408;-0.0180054
3.409;-0.0164795
3.41;-0.0146484
3.411;-0.0128174
3.412;-0.0112915
3.413;-0.0100708
3.414;-0.0088501
3.415;-0.00762939
3.416;-0.00671387
3.417;-0.00610352
3.418;-0.00579834
3.419;-0.00579834
3.42;-0.00610352
3.421;-0.00640869
3.422;-0.00701904
3.423;-0.00732422
3.424;-0.00793457
3.425;-0.00854492
3.426;-0.00915527
3.427;-0.0100708
3.428;-0.0106812
3.429;-0.0115967
3.43;-0.0125122
3.431;-0.0131226
3.432;-0.0140381
3.433;-0.0146484
3.434;-0.0149536
3.435;-0.0149536
3.436;-0.0149536
3.437;-0.0143433
3.438;-0.0137329
3.439;-0.0134277
3.44;-0.0128174
3.441;-0.0125122
3.442;-0.012207
3.443;-0.0119019
3.444;-0.0115967
3.445;-0.0112915
3.446;-0.0106812
3.447;-0.0100708
3.448;-0.00976562
3.449;-0.00915527
3.45;-0.0088501
3.451;-0.0088501
3.452;-0.00915527
3.453;-0.00976562
3.454;-0.010376
3.455;-0.0112915
3.456;-0.012207
3.457;-0.0131226
3.458;-0.0140381
3.459;-0.0149536
3.46;-0.015564
3.461;-0.0158691
3.462;-0.0158691
3.463;-0.015564
3.464;-0.0149536
3.465;-0.0140381
3.466;-0.0131226
3.467;-0.012207
3.468;-0.0115967
3.469;-0.0109863
3.47;-0.0106812
3.471;-0.0106812
3.472;-0.0106812
3.473;-0.0106812
3.474;-0.0106812
3.475;-0.0106812
3.476;-0.0106812
3.477;-0.0106812
3.478;-0.0109863
3.479;-0.0109863
3.48;-0.0112915
3.481;-0.0115967
3.482;-0.012207
3.483;-0.0131226
3.484;-0.0140381
3.485;-0.015564
3.486;-0.0167847
3.487;-0.0183105
3.488;-0.0195312
3.489;-0.0204468
3.49;-0.0210571
3.491;-0.0216675
3.492;-0.0216675
3.493;-0.0216675
3.494;-0.0210571
3.495;-0.020752
3.496;-0.0201416
3.497;-0.0195312
3.498;-0.0189209
3.499;-0.0183105
3.5;-0.0180054
3.501;-0.017395
3.502;-0.0167847
3.503;-0.0161743
3.504;-0.015564
3.505;-0.0149536
3.506;-0.0143433
3.507;-0.0140381
3.508;-0.0134277
3.509;-0.0131226
3.51;-0.0128174
3.511;-0.012207
3.512;-0.0119019
3.513;-0.0115967
3.514;-0.0112915
3.515;-0.0109863
3.516;-0.0106812
3.517;-0.010376
3.518;-0.010376
3.519;-0.010376
3.52;-0.010376
3.521;-0.010376
3.522;-0.010376
3.523;-0.0100708
3.524;-0.0100708
3.525;-0.00976562
3.526;-0.00976562
3.527;-0.00976562
3.528;-0.00946045
3.529;-0.00946045
3.53;-0.00946045
3.531;-0.00946045
3.532;-0.00915527
3.533;-0.0088501
3.534;-0.00823975
3.535;-0.00732422
3.536;-0.00610352
3.537;-0.00488281
3.538;-0.00366211
3.539;-0.00244141
3.54;-0.00183105
3.541;-0.0012207
3.542;-0.000305176
3.543;0.000305176
3.544;0.0012207
3.545;0.00213623
3.546;0.00305176
3.547;0.00427246
3.548;0.00549316
3.549;0.00671387
3.55;0.00823975
3.551;0.00946045
3.552;0.0109863
3.553;0.0131226
3.554;0.0158691
3.555;0.0186157
3.556;0.0219727
3.557;0.0247192
3.558;0.0265503
3.559;0.0274658
3.56;0.0274658
3.561;0.0274658
3.562;0.0271606
3.563;0.0268555
3.564;0.0259399
3.565;0.0247192
3.566;0.0228882
3.567;0.0210571
3.568;0.0189209
3.569;0.0164795
3.57;0.0137329
3.571;0.0109863
3.572;0.00793457
3.573;0.00518799
3.574;0.00274658
3.575;0.000610352
3.576;-0.00152588
3.577;-0.00335693
3.578;-0.00518799
3.579;-0.00671387
3.58;-0.00793457
3.581;-0.00854492
3.582;-0.00793457
3.583;-0.00610352
3.584;-0.00366211
3.585;-0.000610352
3.586;0.00244141
3.587;0.00549316
3.588;0.00793457
3.589;0.0106812
3.59;0.0128174
3.591;0.0152588
3.592;0.0177002
3.593;0.0198364
3.594;0.0216675
3.595;0.0228882
3.596;0.0238037
3.597;0.0241089
3.598;0.0244141
3.599;0.0244141
3.6;0.0238037
3.601;0.0228882
3.602;0.0216675
3.603;0.0201416
3.604;0.0183105
3.605;0.0161743
3.606;0.0137329
3.607;0.0115967
3.608;0.00946045
3.609;0.00762939
3.61;0.00579834
3.611;0.00366211
3.612;0.00152588
3.613;-0.000305176
3.614;-0.00244141
3.615;-0.00396729
3.616;-0.00549316
3.617;-0.00640869
3.618;-0.00732422
3.619;-0.00762939
3.62;-0.00793457
3.621;-0.00762939
3.622;-0.00732422
3.623;-0.00732422
3.624;-0.00701904
3.625;-0.00671387
3.626;-0.00671387
3.627;-0.00671387
3.628;-0.00701904
3.629;-0.00793457
3.63;-0.0088501
3.631;-0.0100708
3.632;-0.0112915
3.633;-0.0125122
3.634;-0.0137329
3.635;-0.0149536
3.636;-0.0161743
3.637;-0.0177002
3.638;-0.0195312
3.639;-0.0213623
3.64;-0.0228882
3.641;-0.0244141
3.642;-0.0256348
3.643;-0.0268555
3.644;-0.0283813
3.645;-0.0299072
3.646;-0.0314331
3.647;-0.032959
3.648;-0.0344849
3.649;-0.0357056
3.65;-0.0363159
3.651;-0.0363159
3.652;-0.0357056
3.653;-0.0350952
3.654;-0.0341797
3.655;-0.0335693
3.656;-0.032959
3.657;-0.0323486
3.658;-0.0320435
3.659;-0.0314331
3.66;-0.0305176
3.661;-0.0289917
3.662;-0.0271606
3.663;-0.0250244
3.664;-0.0234985
3.665;-0.0219727
3.666;-0.020752
3.667;-0.0198364
3.668;-0.0192261
3.669;-0.0189209
3.67;-0.0186157
3.671;-0.0189209
3.672;-0.0192261
3.673;-0.0198364
3.674;-0.0204468
3.675;-0.0216675
3.676;-0.022583
3.677;-0.0231934
3.678;-0.0241089
3.679;-0.0247192
3.68;-0.0256348
3.681;-0.0262451
3.682;-0.0271606
3.683;-0.0280762
3.684;-0.0286865
3.685;-0.0292969
3.686;-0.0296021
3.687;-0.0292969
3.688;-0.0286865
3.689;-0.027771
3.69;-0.0268555
3.691;-0.0256348
3.692;-0.0247192
3.693;-0.0238037
3.694;-0.0231934
3.695;-0.022583
3.696;-0.0219727
3.697;-0.0213623
3.698;-0.020752
3.699;-0.0201416
3.7;-0.0198364
3.701;-0.0189209
3.702;-0.0183105
3.703;-0.0177002
3.704;-0.0170898
3.705;-0.0164795
3.706;-0.0161743
3.707;-0.0158691
3.708;-0.0149536
3.709;-0.0140381
3.71;-0.0128174
3.711;-0.0119019
3.712;-0.0109863
3.713;-0.010376
3.714;-0.00976562
3.715;-0.00946045
3.716;-0.00915527
3.717;-0.00915527
3.718;-0.00946045
3.719;-0.00976562
3.72;-0.00976562
3.721;-0.00915527
3.722;-0.00854492
3.723;-0.00823975
3.724;-0.00823975
3.725;-0.0088501
3.726;-0.010376
3.727;-0.0119019
3.728;-0.0131226
3.729;-0.0134277
3.73;-0.0131226
3.731;-0.012207
3.732;-0.0109863
3.733;-0.00915527
3.734;-0.00701904
3.735;-0.00396729
3.736;-0.000915527
3.737;0.00305176
3.738;0.00732422
3.739;0.012207
3.74;0.0183105
3.741;0.0250244
3.742;0.0332642
3.743;0.0427246
3.744;0.0537109
3.745;0.0665283
3.746;0.0811768
3.747;0.0982666
3.748;0.117493
3.749;0.13855
3.75;0.161438
3.751;0.185242
3.752;0.210266
3.753;0.235596
3.754;0.26123
3.755;0.286865
3.756;0.3125
3.757;0.337524
3.758;0.361023
3.759;0.382996
3.76;0.401917
3.761;0.417175
3.762;0.427856
3.763;0.43335
3.764;0.43335
3.765;0.428162
3.766;0.417175
3.767;0.401306
3.768;0.380554
3.769;0.355225
3.77;0.326538
3.771;0.2948
3.772;0.26062
3.773;0.224609
3.774;0.186462
3.775;0.1474
3.776;0.107422
3.777;0.0674438
3.778;0.0289917
3.779;-0.00762939
3.78;-0.0411987
3.781;-0.0720215
3.782;-0.0997925
3.783;-0.123901
3.784;-0.144653
3.785;-0.161743
3.786;-0.175476
3.787;-0.185547
3.788;-0.192566
3.789;-0.196533
3.79;-0.197754
3.791;-0.196838
3.792;-0.194092
3.793;-0.189819
3.794;-0.184631
3.795;-0.178223
3.796;-0.171509
3.797;-0.163879
3.798;-0.15564
3.799;-0.1474
3.8;-0.13916
3.801;-0.130615
3.802;-0.12207
3.803;-0.11322
3.804;-0.104675
3.805;-0.0961304
3.806;-0.0875854
3.807;-0.0790405
3.808;-0.071106
3.809;-0.0634766
3.81;-0.0567627
3.811;-0.0512695
3.812;-0.0457764
3.813;-0.0405884
3.814;-0.0357056
3.815;-0.0311279
3.816;-0.0271606
3.817;-0.0244141
3.818;-0.0222778
3.819;-0.0210571
3.82;-0.0201416
3.821;-0.0192261
3.822;-0.0186157
3.823;-0.0180054
3.824;-0.017395
3.825;-0.0170898
3.826;-0.0167847
3.827;-0.0164795
3.828;-0.0167847
3.829;-0.0167847
3.83;-0.0167847
3.831;-0.0170898
3.832;-0.017395
3.833;-0.0177002
3.834;-0.0180054
3.835;-0.0186157
3.836;-0.0186157
3.837;-0.0186157
3.838;-0.0186157
3.839;-0.0186157
3.84;-0.0183105
3.841;-0.0177002
3.842;-0.0167847
3.843;-0.0158691
3.844;-0.0149536
3.845;-0.0140381
3.846;-0.0128174
3.847;-0.0119019
3.848;-0.0106812
3.849;-0.00976562
3.85;-0.00854492
3.851;-0.00762939
3.852;-0.00640869
3.853;-0.00549316
3.854;-0.00488281
3.855;-0.00488281
3.856;-0.00488281
3.857;-0.00549316
3.858;-0.00579834
3.859;-0.00640869
3.86;-0.00701904
3.861;-0.00732422
3.862;-0.00793457
3.863;-0.00854492
3.864;-0.00915527
3.865;-0.00976562
3.866;-0.010376
3.867;-0.0109863
3.868;-0.0115967
3.869;-0.012207
3.87;-0.0128174
3.871;-0.0134277
3.872;-0.0137329
3.873;-0.0143433
3.874;-0.0146484
3.875;-0.0149536
3.876;-0.0152588
3.877;-0.015564
3.878;-0.0158691
3.879;-0.0161743
3.88;-0.0161743
3.881;-0.0161743
3.882;-0.0158691
3.883;-0.0152588
3.884;-0.0143433
3.885;-0.0131226
3.886;-0.0119019
3.887;-0.0106812
3.888;-0.00946045
3.889;-0.00823975
3.89;-0.00701904
3.891;-0.00579834
3.892;-0.00427246
3.893;-0.00274658
3.894;-0.0012207
3.895;-0.000305176
3.896;0.000610352
3.897;0.00152588
3.898;0.00213623
3.899;0.00305176
3.9;0.00396729
3.901;0.00549316
3.902;0.00671387
3.903;0.00762939
3.904;0.00823975
3.905;0.00823975
3.906;0.00793457
3.907;0.00701904
3.908;0.00610352
3.909;0.00488281
3.91;0.00366211
3.911;0.00274658
3.912;0.00183105
3.913;0.0012207
3.914;0.000915527
3.915;0.000915527
3.916;0.000915527
3.917;0.000610352
3.918;0
3.919;-0.000610352
3.92;-0.0012207
3.921;-0.00183105
3.922;-0.00244141
3.923;-0.00274658
3.924;-0.00305176
3.925;-0.00305176
3.926;-0.00305176
3.927;-0.00244141
3.928;-0.0012207
3.929;0
3.93;0.00152588
3.931;0.00335693
3.932;0.00488281
3.933;0.00610352
3.934;0.00732422
3.935;0.00854492
3.936;0.00976562
3.937;0.0109863
3.938;0.0119019
3.939;0.0125122
3.94;0.0128174
3.941;0.0131226
3.942;0.0137329
3.943;0.0140381
3.944;0.0146484
3.945;0.0152588
3.946;0.0161743
3.947;0.0164795
3.948;0.0170898
3.949;0.0170898
3.95;0.0167847
3.951;0.0164795
3.952;0.0161743
3.953;0.0158691
3.954;0.0158691
3.955;0.0158691
3.956;0.0164795
3.957;0.017395
3.958;0.0186157
3.959;0.0198364
3.96;0.0213623
3.961;0.022583
3.962;0.0241089
3.963;0.0256348
3.964;0.0271606
3.965;0.0286865
3.966;0.0299072
3.967;0.0308228
3.968;0.0314331
3.969;0.0323486
3.97;0.0335693
3.971;0.03479
3.972;0.0360107
3.973;0.0369263
3.974;0.0378418
3.975;0.0384521
3.976;0.0387573
3.977;0.0390625
3.978;0.0393677
3.979;0.0396729
3.98;0.039978
3.981;0.0402832
3.982;0.0408936
3.983;0.0408936
3.984;0.0411987
3.985;0.0415039
3.986;0.0418091
3.987;0.0424194
3.988;0.043335
3.989;0.0442505
3.99;0.0454712
3.991;0.0466919
3.992;0.0476074
3.993;0.0488281
3.994;0.050354
3.995;0.0521851
3.996;0.0537109
3.997;0.0549316
3.998;0.055542
3.999;0.0561523
4;0.0567627
4.001;0.0570679
4.002;0.0579834
4.003;0.0582886
4.004;0.0588989
4.005;0.0588989
4.006;0.0588989
4.007;0.0588989
4.008;0.0585938
4.009;0.0585938
4.01;0.0585938
4.011;0.0585938
4.012;0.0588989
4.013;0.0595093
4.014;0.0604248
4.015;0.0619507
4.016;0.0634766
4.017;0.0650024
4.018;0.0665283
4.019;0.067749
4.02;0.0689697
4.021;0.0704956
4.022;0.0723267
4.023;0.0738525
4.024;0.0753784
4.025;0.0762939
4.026;0.0765991
4.027;0.0769043
4.028;0.0765991
4.029;0.0765991
4.03;0.0759888
4.031;0.0753784
4.032;0.0744629
4.033;0.0735474
4.034;0.0720215
4.035;0.0701904
4.036;0.0680542
4.037;0.065918
4.038;0.0634766
4.039;0.0610352
4.04;0.0585938
4.041;0.0567627
4.042;0.055542
4.043;0.0546265
4.044;0.0540161
4.045;0.0534058
4.046;0.0524902
4.047;0.0512695
4.048;0.0500488
4.049;0.0488281
4.05;0.0476074
4.051;0.0466919
4.052;0.0463867
4.053;0.0457764
4.054;0.0454712
4.055;0.045166
4.056;0.0445557
4.057;0.043335
4.058;0.0418091
4.059;0.039978
4.06;0.0384521
4.061;0.0366211
4.062;0.0350952
4.063;0.0332642
4.064;0.0308228
4.065;0.0280762
4.066;0.0253296
4.067;0.0222778
4.068;0.0195312
4.069;0.0164795
4.07;0.0137329
4.071;0.0106812
4.072;0.00762939
4.073;0.00457764
4.074;0.00152588
4.075;-0.00183105
4.076;-0.00518799
4.077;-0.0088501
4.078;-0.012207
4.079;-0.015564
4.08;-0.0186157
4.081;-0.020752
4.082;-0.022583
4.083;-0.0241089
4.084;-0.0256348
4.085;-0.0271606
4.086;-0.0289917
4.087;-0.0308228
4.088;-0.0323486
4.089;-0.0332642
4.09;-0.0341797
4.091;-0.0350952
4.092;-0.0354004
4.093;-0.0357056
4.094;-0.0357056
4.095;-0.0354004
4.096;-0.03479
4.097;-0.0338745
4.098;-0.0332642
4.099;-0.0323486
4.1;-0.0317383
4.101;-0.0314331
4.102;-0.0311279
4.103;-0.0311279
4.104;-0.0314331
4.105;-0.0317383
4.106;-0.0317383
4.107;-0.0320435
4.108;-0.0323486
4.109;-0.0326538
4.11;-0.0335693
4.111;-0.0341797
4.112;-0.0344849
4.113;-0.0344849
4.114;-0.0338745
4.115;-0.0338745
4.116;-0.0344849
4.117;-0.0354004
4.118;-0.0366211
4.119;-0.038147
4.12;-0.039978
4.121;-0.0411987
4.122;-0.0418091
4.123;-0.0415039
4.124;-0.0405884
4.125;-0.039978
4.126;-0.0393677
4.127;-0.0387573
4.128;-0.0378418
4.129;-0.0363159
4.13;-0.0350952
4.131;-0.0341797
4.132;-0.0335693
4.133;-0.0326538
4.134;-0.0311279
4.135;-0.0299072
4.136;-0.0286865
4.137;-0.0274658
4.138;-0.0265503
4.139;-0.0256348
4.14;-0.0247192
4.141;-0.0241089
4.142;-0.0238037
4.143;-0.0234985
4.144;-0.0234985
4.145;-0.0234985
4.146;-0.0234985
4.147;-0.0234985
4.148;-0.0231934
4.149;-0.022583
4.15;-0.0216675
4.151;-0.020752
4.152;-0.0204468
4.153;-0.0204468
4.154;-0.020752
4.155;-0.0213623
4.156;-0.0219727
4.157;-0.0228882
4.158;-0.0234985
4.159;-0.0234985
4.16;-0.0228882
4.161;-0.0213623
4.162;-0.0198364
4.163;-0.0183105
4.164;-0.0170898
4.165;-0.0164795
4.166;-0.0164795
4.167;-0.0167847
4.168;-0.0177002
4.169;-0.0183105
4.17;-0.0189209
4.171;-0.0192261
4.172;-0.0195312
4.173;-0.0198364
4.174;-0.0198364
4.175;-0.0198364
4.176;-0.0195312
4.177;-0.0192261
4.178;-0.0189209
4.179;-0.0186157
4.18;-0.0180054
4.181;-0.017395
4.182;-0.0170898
4.183;-0.0164795
4.184;-0.0158691
4.185;-0.015564
4.186;-0.0149536
4.187;-0.0149536
4.188;-0.0146484
4.189;-0.0143433
4.19;-0.0137329
4.191;-0.0119019
4.192;-0.0100708
4.193;-0.00762939
4.194;-0.00549316
4.195;-0.00396729
4.196;-0.00274658
4.197;-0.00244141
4.198;-0.00274658
4.199;-0.00366211
4.2;-0.00457764
4.201;-0.00549316
4.202;-0.00610352
4.203;-0.00671387
4.204;-0.00701904
4.205;-0.00701904
4.206;-0.00732422
4.207;-0.00732422
4.208;-0.00793457
4.209;-0.0088501
4.21;-0.0100708
4.211;-0.0115967
4.212;-0.0128174
4.213;-0.0140381
4.214;-0.0149536
4.215;-0.0158691
4.216;-0.0161743
4.217;-0.0161743
4.218;-0.015564
4.219;-0.0146484
4.22;-0.0140381
4.221;-0.0131226
4.222;-0.0125122
4.223;-0.012207
4.224;-0.0115967
4.225;-0.0112915
4.226;-0.0112915
4.227;-0.0112915
4.228;-0.0115967
4.229;-0.0115967
4.23;-0.0119019
4.231;-0.0125122
4.232;-0.0134277
4.233;-0.0143433
4.234;-0.0161743
4.235;-0.0180054
4.236;-0.0201416
4.237;-0.0219727
4.238;-0.0234985
4.239;-0.0241089
4.24;-0.0247192
4.241;-0.0250244
4.242;-0.0253296
4.243;-0.0253296
4.244;-0.0253296
4.245;-0.0253296
4.246;-0.0253296
4.247;-0.0253296
4.248;-0.0253296
4.249;-0.0253296
4.25;-0.0250244
4.251;-0.0241089
4.252;-0.0228882
4.253;-0.0210571
4.254;-0.0195312
4.255;-0.0180054
4.256;-0.0167847
4.257;-0.0158691
4.258;-0.015564
4.259;-0.015564
4.26;-0.0158691
4.261;-0.0161743
4.262;-0.0161743
4.263;-0.0164795
4.264;-0.0167847
4.265;-0.017395
4.266;-0.0180054
4.267;-0.0189209
4.268;-0.0198364
4.269;-0.0204468
4.27;-0.020752
4.271;-0.0210571
4.272;-0.0213623
4.273;-0.0219727
4.274;-0.0222778
4.275;-0.022583
4.276;-0.022583
4.277;-0.022583
4.278;-0.0222778
4.279;-0.0216675
4.28;-0.0210571
4.281;-0.0204468
4.282;-0.0198364
4.283;-0.0192261
4.284;-0.0186157
4.285;-0.0180054
4.286;-0.0170898
4.287;-0.0161743
4.288;-0.015564
4.289;-0.0149536
4.29;-0.0143433
4.291;-0.0140381
4.292;-0.0137329
4.293;-0.0134277
4.294;-0.0128174
4.295;-0.0128174
4.296;-0.0131226
4.297;-0.0137329
4.298;-0.0146484
4.299;-0.015564
4.3;-0.0167847
4.301;-0.017395
4.302;-0.0180054
4.303;-0.0183105
4.304;-0.0183105
4.305;-0.0180054
4.306;-0.0180054
4.307;-0.0183105
4.308;-0.0186157
4.309;-0.0192261
4.31;-0.0195312
4.311;-0.0198364
4.312;-0.0201416
4.313;-0.0201416
4.314;-0.0201416
4.315;-0.0198364
4.316;-0.0198364
4.317;-0.0198364
4.318;-0.0201416
4.319;-0.0204468
4.32;-0.0210571
4.321;-0.0216675
4.322;-0.0219727
4.323;-0.022583
4.324;-0.0222778
4.325;-0.0219727
4.326;-0.0216675
4.327;-0.0213623
4.328;-0.0210571
4.329;-0.0210571
4.33;-0.0213623
4.331;-0.0213623
4.332;-0.0213623
4.333;-0.0213623
4.334;-0.020752
4.335;-0.0204468
4.336;-0.0198364
4.337;-0.0192261
4.338;-0.0186157
4.339;-0.0183105
4.34;-0.0180054
4.341;-0.017395
4.342;-0.0167847
4.343;-0.0158691
4.344;-0.0149536
4.345;-0.0140381
4.346;-0.0134277
4.347;-0.0128174
4.348;-0.012207
4.349;-0.0119019
4.35;-0.0115967
4.351;-0.0115967
4.352;-0.0112915
4.353;-0.0109863
4.354;-0.0106812
4.355;-0.00976562
4.356;-0.0088501
4.357;-0.00823975
4.358;-0.00732422
4.359;-0.00701904
4.36;-0.00701904
4.361;-0.00701904
4.362;-0.00732422
4.363;-0.00793457
4.364;-0.0088501
4.365;-0.00946045
4.366;-0.010376
4.367;-0.0109863
4.368;-0.0112915
4.369;-0.0115967
4.37;-0.0115967
4.371;-0.0119019
4.372;-0.0115967
4.373;-0.0115967
4.374;-0.0115967
4.375;-0.0115967
4.376;-0.0119019
4.377;-0.0119019
4.378;-0.0119019
4.379;-0.0115967
4.38;-0.0109863
4.381;-0.0100708
4.382;-0.00946045
4.383;-0.00854492
4.384;-0.00732422
4.385;-0.00640869
4.386;-0.00518799
4.387;-0.00396729
4.388;-0.00244141
4.389;-0.0012207
4.39;-0.000305176
4.391;0.000610352
4.392;0.00152588
4.393;0.00244141
4.394;0.00335693
4.395;0.00457764
4.396;0.00579834
4.397;0.00732422
4.398;0.00854492
4.399;0.00976562
4.4;0.0106812
4.401;0.0115967
4.402;0.0125122
4.403;0.0131226
4.404;0.0131226
4.405;0.0131226
4.406;0.0125122
4.407;0.0119019
4.408;0.0109863
4.409;0.010376
4.41;0.0100708
4.411;0.0100708
4.412;0.010376
4.413;0.0109863
4.414;0.0112915
4.415;0.0115967
4.416;0.012207
4.417;0.0128174
4.418;0.0137329
4.419;0.0146484
4.42;0.015564
4.421;0.0170898
4.422;0.0192261
4.423;0.0213623
4.424;0.0234985
4.425;0.0253296
4.426;0.0265503
4.427;0.0274658
4.428;0.0283813
4.429;0.0292969
4.43;0.0302124
4.431;0.0308228
4.432;0.0308228
4.433;0.0299072
4.434;0.0286865
4.435;0.0268555
4.436;0.0247192
4.437;0.0219727
4.438;0.0192261
4.439;0.0158691
4.44;0.0125122
4.441;0.00915527
4.442;0.00579834
4.443;0.00335693
4.444;0.0012207
4.445;-0.000305176
4.446;-0.00183105
4.447;-0.00335693
4.448;-0.00518799
4.449;-0.00671387
4.45;-0.00823975
4.451;-0.00976562
4.452;-0.0106812
4.453;-0.0115967
4.454;-0.012207
4.455;-0.0125122
4.456;-0.0128174
4.457;-0.0128174
4.458;-0.0128174
4.459;-0.0131226
4.46;-0.0131226
4.461;-0.0134277
4.462;-0.0140381
4.463;-0.0146484
4.464;-0.015564
4.465;-0.0167847
4.466;-0.0177002
4.467;-0.0186157
4.468;-0.0192261
4.469;-0.0198364
4.47;-0.0204468
4.471;-0.0210571
4.472;-0.0219727
4.473;-0.0231934
4.474;-0.0241089
4.475;-0.0256348
4.476;-0.0268555
4.477;-0.027771
4.478;-0.0283813
4.479;-0.0286865
4.48;-0.0289917
4.481;-0.0296021
4.482;-0.0299072
4.483;-0.0299072
4.484;-0.0296021
4.485;-0.0296021
4.486;-0.0292969
4.487;-0.0292969
4.488;-0.0292969
4.489;-0.0289917
4.49;-0.0286865
4.491;-0.0280762
4.492;-0.0271606
4.493;-0.0262451
4.494;-0.0250244
4.495;-0.0238037
4.496;-0.022583
4.497;-0.0210571
4.498;-0.0198364
4.499;-0.0189209
4.5;-0.0180054
4.501;-0.0177002
4.502;-0.0170898
4.503;-0.0167847
4.504;-0.0167847
4.505;-0.0164795
4.506;-0.0164795
4.507;-0.0164795
4.508;-0.0161743
4.509;-0.0161743
4.51;-0.0161743
4.511;-0.0158691
4.512;-0.0158691
4.513;-0.0161743
4.514;-0.0164795
4.515;-0.0170898
4.516;-0.0177002
4.517;-0.0180054
4.518;-0.0180054
4.519;-0.0177002
4.52;-0.0170898
4.521;-0.0167847
4.522;-0.0167847
4.523;-0.0167847
4.524;-0.0170898
4.525;-0.0170898
4.526;-0.0164795
4.527;-0.0161743
4.528;-0.0158691
4.529;-0.0158691
4.53;-0.015564
4.531;-0.0146484
4.532;-0.0134277
4.533;-0.012207
4.534;-0.0109863
4.535;-0.0100708
4.536;-0.00915527
4.537;-0.00823975
4.538;-0.00762939
4.539;-0.00671387
4.54;-0.00640869
4.541;-0.00579834
4.542;-0.00549316
4.543;-0.00518799
4.544;-0.00488281
4.545;-0.00457764
4.546;-0.00427246
4.547;-0.00366211
4.548;-0.00335693
4.549;-0.00335693
4.55;-0.00366211
4.551;-0.00457764
4.552;-0.00579834
4.553;-0.00732422
4.554;-0.00854492
4.555;-0.00976562
4.556;-0.010376
4.557;-0.0112915
4.558;-0.012207
4.559;-0.0134277
4.56;-0.0143433
4.561;-0.015564
4.562;-0.0161743
4.563;-0.0161743
4.564;-0.015564
4.565;-0.0143433
4.566;-0.0125122
4.567;-0.010376
4.568;-0.00823975
4.569;-0.00610352
4.57;-0.00366211
4.571;-0.000610352
4.572;0.00335693
4.573;0.00793457
4.574;0.0131226
4.575;0.0195312
4.576;0.0268555
4.577;0.0350952
4.578;0.0448608
4.579;0.0558472
4.58;0.0683594
4.581;0.0827026
4.582;0.098877
4.583;0.117188
4.584;0.137329
4.585;0.159302
4.586;0.182495
4.587;0.207214
4.588;0.232849
4.589;0.259705
4.59;0.287781
4.591;0.316162
4.592;0.344238
4.593;0.371094
4.594;0.395508
4.595;0.416565
4.596;0.433655
4.597;0.446472
4.598;0.454102
4.599;0.456238
4.6;0.452576
4.601;0.443115
4.602;0.427856
4.603;0.407715
4.604;0.383301
4.605;0.354919
4.606;0.322876
4.607;0.287476
4.608;0.249939
4.609;0.210266
4.61;0.169983
4.611;0.129395
4.612;0.0894165
4.613;0.050354
4.614;0.0128174
4.615;-0.0219727
4.616;-0.0537109
4.617;-0.0814819
4.618;-0.10498
4.619;-0.124512
4.62;-0.140381
4.621;-0.152893
4.622;-0.161438
4.623;-0.166626
4.624;-0.169067
4.625;-0.169678
4.626;-0.169373
4.627;-0.167847
4.628;-0.166016
4.629;-0.163574
4.63;-0.160828
4.631;-0.157776
4.632;-0.154114
4.633;-0.150452
4.634;-0.146179
4.635;-0.142212
4.636;-0.137634
4.637;-0.133057
4.638;-0.127869
4.639;-0.122986
4.64;-0.117798
4.641;-0.11261
4.642;-0.107422
4.643;-0.101318
4.644;-0.0952148
4.645;-0.0888062
4.646;-0.0823975
4.647;-0.0759888
4.648;-0.0698853
4.649;-0.0637817
4.65;-0.0576782
4.651;-0.0524902
4.652;-0.0476074
4.653;-0.043335
4.654;-0.039978
4.655;-0.0369263
4.656;-0.03479
4.657;-0.0326538
4.658;-0.0305176
4.659;-0.0280762
4.66;-0.0256348
4.661;-0.0238037
4.662;-0.022583
4.663;-0.0216675
4.664;-0.0213623
4.665;-0.020752
4.666;-0.0198364
4.667;-0.0186157
4.668;-0.017395
4.669;-0.0164795
4.67;-0.0158691
4.671;-0.0152588
4.672;-0.0143433
4.673;-0.0137329
4.674;-0.0131226
4.675;-0.012207
4.676;-0.0115967
4.677;-0.0109863
4.678;-0.0100708
4.679;-0.00976562
4.68;-0.00946045
4.681;-0.00976562
4.682;-0.0100708
4.683;-0.010376
4.684;-0.010376
4.685;-0.0100708
4.686;-0.0100708
4.687;-0.00946045
4.688;-0.0088501
4.689;-0.00793457
4.69;-0.00671387
4.691;-0.00610352
4.692;-0.00549316
4.693;-0.00518799
4.694;-0.00488281
4.695;-0.00427246
4.696;-0.00396729
4.697;-0.00335693
4.698;-0.00244141
4.699;-0.00152588
4.7;-0.000915527
4.701;-0.000305176
4.702;-0.000305176
4.703;-0.000305176
4.704;-0.000305176
4.705;0
4.706;0.000610352
4.707;0.00152588
4.708;0.00274658
4.709;0.00427246
4.71;0.00549316
4.711;0.00640869
4.712;0.00701904
4.713;0.00701904
4.714;0.00671387
4.715;0.00640869
4.716;0.00610352
4.717;0.00579834
4.718;0.00549316
4.719;0.00518799
4.72;0.00488281
4.721;0.00427246
4.722;0.00396729
4.723;0.00305176
4.724;0.00213623
4.725;0.000915527
4.726;-0.000305176
4.727;-0.00152588
4.728;-0.00213623
4.729;-0.00274658
4.73;-0.00305176
4.731;-0.00305176
4.732;-0.00335693
4.733;-0.00335693
4.734;-0.00335693
4.735;-0.00335693
4.736;-0.00274658
4.737;-0.00152588
4.738;-0.000610352
4.739;0.000915527
4.74;0.00213623
4.741;0.00335693
4.742;0.00457764
4.743;0.00549316
4.744;0.00610352
4.745;0.00640869
4.746;0.00610352
4.747;0.00579834
4.748;0.00549316
4.749;0.00549316
4.75;0.00671387
4.751;0.00823975
4.752;0.0100708
4.753;0.0109863
4.754;0.0112915
4.755;0.0112915
4.756;0.0109863
4.757;0.010376
4.758;0.010376
4.759;0.010376
4.76;0.0109863
4.761;0.0119019
4.762;0.0125122
4.763;0.0134277
4.764;0.0140381
4.765;0.0152588
4.766;0.0164795
4.767;0.0180054
4.768;0.0189209
4.769;0.0192261
4.77;0.0189209
4.771;0.0180054
4.772;0.0167847
4.773;0.0158691
4.774;0.0152588
4.775;0.0149536
4.776;0.0149536
4.777;0.015564
4.778;0.0158691
4.779;0.0164795
4.78;0.0167847
4.781;0.0170898
4.782;0.0170898
4.783;0.017395
4.784;0.017395
4.785;0.0177002
4.786;0.0183105
4.787;0.0195312
4.788;0.0213623
4.789;0.0238037
4.79;0.0262451
4.791;0.0280762
4.792;0.0292969
4.793;0.0299072
4.794;0.0302124
4.795;0.0305176
4.796;0.0308228
4.797;0.0308228
4.798;0.0311279
4.799;0.0311279
4.8;0.0308228
4.801;0.0308228
4.802;0.0302124
4.803;0.0296021
4.804;0.0286865
4.805;0.027771
4.806;0.0268555
4.807;0.0256348
4.808;0.0241089
4.809;0.0228882
4.81;0.0222778
4.811;0.0222778
4.812;0.0222778
4.813;0.022583
4.814;0.0228882
4.815;0.0231934
4.816;0.0241089
4.817;0.0253296
4.818;0.0274658
4.819;0.0302124
4.82;0.0326538
4.821;0.0354004
4.822;0.0378418
4.823;0.039978
4.824;0.0415039
4.825;0.0430298
4.826;0.0442505
4.827;0.0454712
4.828;0.0463867
4.829;0.0473022
4.83;0.0482178
4.831;0.0491333
4.832;0.0497437
4.833;0.0500488
4.834;0.0506592
4.835;0.0509644
4.836;0.0512695
4.837;0.0515747
4.838;0.0515747
4.839;0.0518799
4.84;0.0527954
4.841;0.0534058
4.842;0.0543213
4.843;0.0546265
4.844;0.0549316
4.845;0.0552368
4.846;0.055542
4.847;0.0567627
4.848;0.0585938
4.849;0.06073
4.85;0.0619507
4.851;0.0628662
4.852;0.0631714
4.853;0.0634766
4.854;0.0640869
4.855;0.0653076
4.856;0.0671387
4.857;0.0689697
4.858;0.0704956
4.859;0.0717163
4.86;0.0723267
4.861;0.0723267
4.862;0.0720215
4.863;0.0720215
4.864;0.0723267
4.865;0.072937
4.866;0.0735474
4.867;0.0741577
4.868;0.0741577
4.869;0.0741577
4.87;0.0738525
4.871;0.0732422
4.872;0.0726318
4.873;0.0723267
4.874;0.0714111
4.875;0.0704956
4.876;0.0692749
4.877;0.0674438
4.878;0.0653076
4.879;0.0634766
4.88;0.0619507
4.881;0.06073
4.882;0.0595093
4.883;0.0582886
4.884;0.0570679
4.885;0.0561523
4.886;0.0552368
4.887;0.0540161
4.888;0.0521851
4.889;0.0494385
4.89;0.0466919
4.891;0.043335
4.892;0.0402832
4.893;0.0375366
4.894;0.0350952
4.895;0.0332642
4.896;0.0317383
4.897;0.0299072
4.898;0.0283813
4.899;0.0265503
4.9;0.0250244
4.901;0.0238037
4.902;0.022583
4.903;0.020752
4.904;0.0189209
4.905;0.0167847
4.906;0.0149536
4.907;0.0140381
4.908;0.0128174
4.909;0.0115967
4.91;0.0100708
4.911;0.00793457
4.912;0.00549316
4.913;0.00274658
4.914;-0.000305176
4.915;-0.00335693
4.916;-0.00640869
4.917;-0.00946045
4.918;-0.0125122
4.919;-0.0152588
4.92;-0.0177002
4.921;-0.0204468
4.922;-0.022583
4.923;-0.0247192
4.924;-0.0268555
4.925;-0.0296021
4.926;-0.0320435
4.927;-0.0341797
4.928;-0.0357056
4.929;-0.0369263
4.93;-0.0378418
4.931;-0.0384521
4.932;-0.0387573
4.933;-0.0384521
4.934;-0.038147
4.935;-0.0378418
4.936;-0.0375366
4.937;-0.0378418
4.938;-0.038147
4.939;-0.0384521
4.94;-0.0384521
4.941;-0.0378418
4.942;-0.0372314
4.943;-0.0372314
4.944;-0.038147
4.945;-0.0390625
4.946;-0.0393677
4.947;-0.0390625
4.948;-0.038147
4.949;-0.0366211
4.95;-0.0350952
4.951;-0.0338745
4.952;-0.0326538
4.953;-0.0314331
4.954;-0.0305176
4.955;-0.0299072
4.956;-0.0292969
4.957;-0.0283813
4.958;-0.0274658
4.959;-0.0268555
4.96;-0.0265503
4.961;-0.0265503
4.962;-0.0265503
4.963;-0.0268555
4.964;-0.0268555
4.965;-0.0268555
4.966;-0.0271606
4.967;-0.0274658
4.968;-0.0280762
4.969;-0.0286865
4.97;-0.0299072
4.971;-0.0305176
4.972;-0.0311279
4.973;-0.0311279
4.974;-0.0311279
4.975;-0.0311279
4.976;-0.0311279
4.977;-0.0308228
4.978;-0.0308228
4.979;-0.0305176
4.98;-0.0305176
4.981;-0.0305176
4.982;-0.0305176
4.983;-0.0311279
4.984;-0.0314331
4.985;-0.0311279
4.986;-0.0302124
4.987;-0.0289917
4.988;-0.027771
4.989;-0.0265503
4.99;-0.0256348
4.991;-0.0247192
4.992;-0.0241089
4.993;-0.0234985
4.994;-0.0228882
4.995;-0.0222778
4.996;-0.0213623
4.997;-0.0201416
4.998;-0.0189209
4.999;-0.0177002
5;-0.0161743
5.001;-0.0149536
5.002;-0.0140381
5.003;-0.0131226
5.004;-0.0119019
5.005;-0.0109863
5.006;-0.00976562
5.007;-0.0088501
5.008;-0.00854492
5.009;-0.00854492
5.01;-0.00915527
5.011;-0.0100708
5.012;-0.0112915
5.013;-0.0125122
5.014;-0.0140381
5.015;-0.0152588
5.016;-0.0164795
5.017;-0.017395
5.018;-0.0186157
5.019;-0.0192261
5.02;-0.0201416
5.021;-0.0213623
5.022;-0.0228882
5.023;-0.0244141
5.024;-0.0262451
5.025;-0.0280762
5.026;-0.0292969
5.027;-0.0296021
5.028;-0.0292969
5.029;-0.0283813
5.03;-0.027771
5.031;-0.0268555
5.032;-0.0259399
5.033;-0.0247192
5.034;-0.0238037
5.035;-0.0222778
5.036;-0.0204468
5.037;-0.0186157
5.038;-0.0170898
5.039;-0.015564
5.04;-0.0143433
5.041;-0.0128174
5.042;-0.0106812
5.043;-0.00823975
5.044;-0.00549316
5.045;-0.00305176
5.046;-0.000915527
5.047;0.000610352
5.048;0.000915527
5.049;0.000915527
5.05;0.000305176
5.051;0
5.052;-0.000610352
5.053;-0.000915527
5.054;-0.00152588
5.055;-0.00213623
5.056;-0.00274658
5.057;-0.00335693
5.058;-0.00396729
5.059;-0.00457764
5.06;-0.00518799
5.061;-0.00610352
5.062;-0.00671387
5.063;-0.00793457
5.064;-0.0088501
5.065;-0.00946045
5.066;-0.0100708
5.067;-0.010376
5.068;-0.0106812
5.069;-0.0109863
5.07;-0.0115967
5.071;-0.0119019
5.072;-0.0125122
5.073;-0.0131226
5.074;-0.0137329
5.075;-0.0143433
5.076;-0.0149536
5.077;-0.015564
5.078;-0.0161743
5.079;-0.0170898
5.08;-0.0186157
5.081;-0.0201416
5.082;-0.0222778
5.083;-0.0244141
5.084;-0.0262451
5.085;-0.0274658
5.086;-0.027771
5.087;-0.0274658
5.088;-0.0271606
5.089;-0.0268555
5.09;-0.0265503
5.091;-0.0259399
5.092;-0.0253296
5.093;-0.0244141
5.094;-0.0228882
5.095;-0.0216675
5.096;-0.0201416
5.097;-0.0183105
5.098;-0.0167847
5.099;-0.0146484
5.1;-0.0131226
5.101;-0.0115967
5.102;-0.0106812
5.103;-0.0100708
5.104;-0.00976562
5.105;-0.00976562
5.106;-0.0100708
5.107;-0.0106812
5.108;-0.0112915
5.109;-0.012207
5.11;-0.0131226
5.111;-0.0140381
5.112;-0.0149536
5.113;-0.0164795
5.114;-0.0183105
5.115;-0.0201416
5.116;-0.0219727
5.117;-0.0238037
5.118;-0.0256348
5.119;-0.0268555
5.12;-0.027771
5.121;-0.0286865
5.122;-0.0292969
5.123;-0.0299072
5.124;-0.0299072
5.125;-0.0292969
5.126;-0.0283813
5.127;-0.0274658
5.128;-0.0265503
5.129;-0.0256348
5.13;-0.0244141
5.131;-0.0231934
5.132;-0.0216675
5.133;-0.0195312
5.134;-0.0177002
5.135;-0.015564
5.136;-0.0137329
5.137;-0.0119019
5.138;-0.0100708
5.139;-0.00823975
5.14;-0.00701904
5.141;-0.00610352
5.142;-0.00579834
5.143;-0.00579834
5.144;-0.00671387
5.145;-0.00762939
5.146;-0.00854492
5.147;-0.00946045
5.148;-0.0106812
5.149;-0.0115967
5.15;-0.0128174
5.151;-0.0140381
5.152;-0.015564
5.153;-0.0177002
5.154;-0.0195312
5.155;-0.0213623
5.156;-0.022583
5.157;-0.0231934
5.158;-0.0234985
5.159;-0.0238037
5.16;-0.0241089
5.161;-0.0238037
5.162;-0.0234985
5.163;-0.0222778
5.164;-0.020752
5.165;-0.0189209
5.166;-0.017395
5.167;-0.0158691
5.168;-0.0140381
5.169;-0.0125122
5.17;-0.010376
5.171;-0.00854492
5.172;-0.00701904
5.173;-0.00549316
5.174;-0.00427246
5.175;-0.00335693
5.176;-0.00274658
5.177;-0.00274658
5.178;-0.00274658
5.179;-0.00305176
5.18;-0.00335693
5.181;-0.00335693
5.182;-0.00335693
5.183;-0.00305176
5.184;-0.00244141
5.185;-0.00213623
5.186;-0.00183105
5.187;-0.00213623
5.188;-0.00244141
5.189;-0.00274658
5.19;-0.00244141
5.191;-0.00152588
5.192;0.000305176
5.193;0.00213623
5.194;0.00366211
5.195;0.00549316
5.196;0.00701904
5.197;0.00823975
5.198;0.0088501
5.199;0.00915527
5.2;0.00915527
5.201;0.0088501
5.202;0.00823975
5.203;0.00732422
5.204;0.00640869
5.205;0.00549316
5.206;0.00427246
5.207;0.00335693
5.208;0.00213623
5.209;0.000610352
5.21;-0.000915527
5.211;-0.00213623
5.212;-0.00335693
5.213;-0.00427246
5.214;-0.00518799
5.215;-0.00549316
5.216;-0.00579834
5.217;-0.00549316
5.218;-0.00457764
5.219;-0.00335693
5.22;-0.00152588
5.221;0.000610352
5.222;0.00274658
5.223;0.00488281
5.224;0.00671387
5.225;0.0088501
5.226;0.0106812
5.227;0.0125122
5.228;0.0140381
5.229;0.0149536
5.23;0.0158691
5.231;0.0164795
5.232;0.0164795
5.233;0.0161743
5.234;0.015564
5.235;0.0149536
5.236;0.0137329
5.237;0.0119019
5.238;0.00976562
5.239;0.00732422
5.24;0.00488281
5.241;0.00274658
5.242;0.000915527
5.243;-0.0012207
5.244;-0.00305176
5.245;-0.00518799
5.246;-0.00701904
5.247;-0.00915527
5.248;-0.0109863
5.249;-0.0131226
5.25;-0.0152588
5.251;-0.0170898
5.252;-0.0189209
5.253;-0.020752
5.254;-0.0222778
5.255;-0.0234985
5.256;-0.0247192
5.257;-0.0253296
5.258;-0.0256348
5.259;-0.0259399
5.26;-0.0268555
5.261;-0.0274658
5.262;-0.0283813
5.263;-0.0292969
5.264;-0.0299072
5.265;-0.0305176
5.266;-0.0308228
5.267;-0.0314331
5.268;-0.0317383
5.269;-0.0323486
5.27;-0.032959
5.271;-0.0335693
5.272;-0.0338745
5.273;-0.0344849
5.274;-0.0350952
5.275;-0.0357056
5.276;-0.0366211
5.277;-0.0375366
5.278;-0.038147
5.279;-0.0387573
5.28;-0.0387573
5.281;-0.0387573
5.282;-0.0387573
5.283;-0.0384521
5.284;-0.0387573
5.285;-0.0387573
5.286;-0.0390625
5.287;-0.0390625
5.288;-0.0390625
5.289;-0.0390625
5.29;-0.0384521
5.291;-0.0378418
5.292;-0.0369263
5.293;-0.0363159
5.294;-0.0354004
5.295;-0.03479
5.296;-0.0344849
5.297;-0.0344849
5.298;-0.0344849
5.299;-0.0350952
5.3;-0.0350952
5.301;-0.0354004
5.302;-0.0354004
5.303;-0.0354004
5.304;-0.0354004
5.305;-0.0354004
5.306;-0.0350952
5.307;-0.0344849
5.308;-0.0338745
5.309;-0.0332642
5.31;-0.032959
5.311;-0.0326538
5.312;-0.0320435
5.313;-0.0314331
5.314;-0.0308228
5.315;-0.0296021
5.316;-0.0286865
5.317;-0.0283813
5.318;-0.0283813
5.319;-0.0286865
5.32;-0.0289917
5.321;-0.0292969
5.322;-0.0292969
5.323;-0.0292969
5.324;-0.0289917
5.325;-0.0289917
5.326;-0.0292969
5.327;-0.0296021
5.328;-0.0299072
5.329;-0.0305176
5.33;-0.0314331
5.331;-0.0326538
5.332;-0.0335693
5.333;-0.0344849
5.334;-0.0354004
5.335;-0.0360107
5.336;-0.0357056
5.337;-0.03479
5.338;-0.032959
5.339;-0.0308228
5.34;-0.0286865
5.341;-0.0271606
5.342;-0.0259399
5.343;-0.0256348
5.344;-0.0253296
5.345;-0.0253296
5.346;-0.0247192
5.347;-0.0244141
5.348;-0.0238037
5.349;-0.0234985
5.35;-0.0231934
5.351;-0.0228882
5.352;-0.022583
5.353;-0.0222778
5.354;-0.0216675
5.355;-0.020752
5.356;-0.0195312
5.357;-0.017395
5.358;-0.0146484
5.359;-0.0112915
5.36;-0.00671387
5.361;-0.00152588
5.362;0.00457764
5.363;0.0119019
5.364;0.0204468
5.365;0.0296021
5.366;0.039978
5.367;0.0518799
5.368;0.0653076
5.369;0.0802612
5.37;0.0970459
5.371;0.115356
5.372;0.134888
5.373;0.155945
5.374;0.178223
5.375;0.201111
5.376;0.224915
5.377;0.249634
5.378;0.274963
5.379;0.300598
5.38;0.326233
5.381;0.350647
5.382;0.37323
5.383;0.392761
5.384;0.408325
5.385;0.419312
5.386;0.42572
5.387;0.426636
5.388;0.422668
5.389;0.413513
5.39;0.399475
5.391;0.381165
5.392;0.358887
5.393;0.332642
5.394;0.30304
5.395;0.270691
5.396;0.235596
5.397;0.198364
5.398;0.159607
5.399;0.119934
5.4;0.0799561
5.401;0.0405884
5.402;0.00274658
5.403;-0.0323486
5.404;-0.0646973
5.405;-0.0933838
5.406;-0.118103
5.407;-0.13916
5.408;-0.15625
5.409;-0.169678
5.41;-0.179443
5.411;-0.185852
5.412;-0.189514
5.413;-0.190735
5.414;-0.189819
5.415;-0.187378
5.416;-0.184021
5.417;-0.179749
5.418;-0.175476
5.419;-0.170898
5.42;-0.166321
5.421;-0.161743
5.422;-0.157166
5.423;-0.152283
5.424;-0.147095
5.425;-0.140991
5.426;-0.134888
5.427;-0.128174
5.428;-0.121765
5.429;-0.115356
5.43;-0.108948
5.431;-0.102234
5.432;-0.09552
5.433;-0.0891113
5.434;-0.0827026
5.435;-0.0769043
5.436;-0.0714111
5.437;-0.0662231
5.438;-0.0610352
5.439;-0.0558472
5.44;-0.0512695
5.441;-0.0469971
5.442;-0.0436401
5.443;-0.0405884
5.444;-0.0384521
5.445;-0.0360107
5.446;-0.0335693
5.447;-0.0308228
5.448;-0.0280762
5.449;-0.0256348
5.45;-0.0234985
5.451;-0.0216675
5.452;-0.0204468
5.453;-0.0192261
5.454;-0.0183105
5.455;-0.017395
5.456;-0.0158691
5.457;-0.0146484
5.458;-0.0137329
5.459;-0.0131226
5.46;-0.0131226
5.461;-0.0131226
5.462;-0.0134277
5.463;-0.0137329
5.464;-0.0143433
5.465;-0.0146484
5.466;-0.0146484
5.467;-0.0143433
5.468;-0.0140381
5.469;-0.0140381
5.47;-0.0140381
5.471;-0.0140381
5.472;-0.0146484
5.473;-0.0149536
5.474;-0.0152588
5.475;-0.0149536
5.476;-0.0143433
5.477;-0.0131226
5.478;-0.0119019
5.479;-0.0106812
5.48;-0.00946045
5.481;-0.00823975
5.482;-0.00732422
5.483;-0.00640869
5.484;-0.00610352
5.485;-0.00579834
5.486;-0.00549316
5.487;-0.00549316
5.488;-0.00579834
5.489;-0.00640869
5.49;-0.00732422
5.491;-0.00854492
5.492;-0.00976562
5.493;-0.0109863
5.494;-0.012207
5.495;-0.0131226
5.496;-0.0140381
5.497;-0.0146484
5.498;-0.015564
5.499;-0.0161743
5.5;-0.0167847
5.501;-0.0170898
5.502;-0.017395
5.503;-0.017395
5.504;-0.017395
5.505;-0.017395
5.506;-0.0167847
5.507;-0.0158691
5.508;-0.0152588
5.509;-0.0146484
5.51;-0.0140381
5.511;-0.0137329
5.512;-0.0134277
5.513;-0.0131226
5.514;-0.0125122
5.515;-0.0119019
5.516;-0.0109863
5.517;-0.00976562
5.518;-0.00854492
5.519;-0.00732422
5.52;-0.00640869
5.521;-0.00579834
5.522;-0.00579834
5.523;-0.00640869
5.524;-0.00701904
5.525;-0.00793457
5.526;-0.00854492
5.527;-0.00915527
5.528;-0.00976562
5.529;-0.0100708
5.53;-0.0100708
5.531;-0.00976562
5.532;-0.00976562
5.533;-0.00946045
5.534;-0.00915527
5.535;-0.0088501
5.536;-0.00854492
5.537;-0.00793457
5.538;-0.00762939
5.539;-0.00732422
5.54;-0.00671387
5.541;-0.00579834
5.542;-0.00488281
5.543;-0.00396729
5.544;-0.00335693
5.545;-0.00213623
5.546;-0.000610352
5.547;0.00152588
5.548;0.00366211
5.549;0.00579834
5.55;0.00701904
5.551;0.00762939
5.552;0.00732422
5.553;0.00701904
5.554;0.00732422
5.555;0.00793457
5.556;0.0088501
5.557;0.00976562
5.558;0.010376
5.559;0.0112915
5.56;0.0115967
5.561;0.0112915
5.562;0.0106812
5.563;0.0100708
5.564;0.00976562
5.565;0.00976562
5.566;0.00976562
5.567;0.010376
5.568;0.0112915
5.569;0.0128174
5.57;0.0140381
5.571;0.0149536
5.572;0.0149536
5.573;0.0146484
5.574;0.0143433
5.575;0.0140381
5.576;0.0137329
5.577;0.0137329
5.578;0.0134277
5.579;0.0134277
5.58;0.0131226
5.581;0.0131226
5.582;0.0128174
5.583;0.0128174
5.584;0.0128174
5.585;0.0128174
5.586;0.0131226
5.587;0.0134277
5.588;0.0137329
5.589;0.0143433
5.59;0.0146484
5.591;0.0152588
5.592;0.0158691
5.593;0.0167847
5.594;0.017395
5.595;0.0183105
5.596;0.0192261
5.597;0.0204468
5.598;0.0216675
5.599;0.0228882
5.6;0.0244141
5.601;0.0259399
5.602;0.027771
5.603;0.0292969
5.604;0.0302124
5.605;0.0311279
5.606;0.0320435
5.607;0.032959
5.608;0.0338745
5.609;0.03479
5.61;0.0350952
5.611;0.0354004
5.612;0.0354004
5.613;0.03479
5.614;0.0344849
5.615;0.0338745
5.616;0.0332642
5.617;0.0326538
5.618;0.0323486
5.619;0.0317383
5.62;0.0311279
5.621;0.0305176
5.622;0.0302124
5.623;0.0299072
5.624;0.0299072
5.625;0.0302124
5.626;0.0305176
5.627;0.0311279
5.628;0.0317383
5.629;0.0323486
5.63;0.0335693
5.631;0.03479
5.632;0.0363159
5.633;0.038147
5.634;0.0402832
5.635;0.0421143
5.636;0.0442505
5.637;0.0454712
5.638;0.0460815
5.639;0.0460815
5.64;0.0463867
5.641;0.0482178
5.642;0.0509644
5.643;0.0546265
5.644;0.0582886
5.645;0.0616455
5.646;0.0643921
5.647;0.0662231
5.648;0.067749
5.649;0.0686646
5.65;0.0692749
5.651;0.0698853
5.652;0.0708008
5.653;0.0717163
5.654;0.0732422
5.655;0.0750732
5.656;0.0778198
5.657;0.0802612
5.658;0.0817871
5.659;0.0827026
5.66;0.0827026
5.661;0.0817871
5.662;0.0802612
5.663;0.078125
5.664;0.0753784
5.665;0.0723267
5.666;0.0686646
5.667;0.0650024
5.668;0.0610352
5.669;0.0570679
5.67;0.0534058
5.671;0.0494385
5.672;0.0454712
5.673;0.0415039
5.674;0.0372314
5.675;0.0332642
5.676;0.0289917
5.677;0.0247192
5.678;0.0210571
5.679;0.017395
5.68;0.0143433
5.681;0.0115967
5.682;0.00915527
5.683;0.00732422
5.684;0.00610352
5.685;0.00457764
5.686;0.00305176
5.687;0.0012207
5.688;-0.000305176
5.689;-0.00213623
5.69;-0.00335693
5.691;-0.00457764
5.692;-0.00579834
5.693;-0.00671387
5.694;-0.00762939
5.695;-0.00793457
5.696;-0.00854492
5.697;-0.00915527
5.698;-0.0100708
5.699;-0.0112915
5.7;-0.0131226
5.701;-0.0149536
5.702;-0.0170898
5.703;-0.0189209
5.704;-0.0210571
5.705;-0.0228882
5.706;-0.0247192
5.707;-0.0265503
5.708;-0.0283813
5.709;-0.0302124
5.71;-0.0317383
5.711;-0.0332642
5.712;-0.0344849
5.713;-0.0357056
5.714;-0.0369263
5.715;-0.038147
5.716;-0.0396729
5.717;-0.0415039
5.718;-0.043335
5.719;-0.0454712
5.72;-0.0473022
5.721;-0.0494385
5.722;-0.0509644
5.723;-0.0518799
5.724;-0.0521851
5.725;-0.0521851
5.726;-0.0518799
5.727;-0.0518799
5.728;-0.0521851
5.729;-0.0527954
5.73;-0.0537109
5.731;-0.0543213
5.732;-0.0546265
5.733;-0.0543213
5.734;-0.0537109
5.735;-0.0524902
5.736;-0.0506592
5.737;-0.0488281
5.738;-0.0466919
5.739;-0.0442505
5.74;-0.0418091
5.741;-0.0396729
5.742;-0.0384521
5.743;-0.0372314
5.744;-0.0360107
5.745;-0.0350952
5.746;-0.0341797
5.747;-0.0335693
5.748;-0.0332642
5.749;-0.0332642
5.75;-0.0338745
5.751;-0.0354004
5.752;-0.0369263
5.753;-0.0387573
5.754;-0.0396729
5.755;-0.0402832
5.756;-0.0402832
5.757;-0.039978
5.758;-0.0393677
5.759;-0.0390625
5.76;-0.0384521
5.761;-0.038147
5.762;-0.0378418
5.763;-0.0369263
5.764;-0.0360107
5.765;-0.0344849
5.766;-0.032959
5.767;-0.0314331
5.768;-0.0299072
5.769;-0.0289917
5.77;-0.0283813
5.771;-0.0283813
5.772;-0.0286865
5.773;-0.0289917
5.774;-0.0289917
5.775;-0.0292969
5.776;-0.0296021
5.777;-0.0302124
5.778;-0.0314331
5.779;-0.0323486
5.78;-0.0335693
5.781;-0.0344849
5.782;-0.0350952
5.783;-0.0354004
5.784;-0.0350952
5.785;-0.0338745
5.786;-0.0323486
5.787;-0.0302124
5.788;-0.027771
5.789;-0.0259399
5.79;-0.0241089
5.791;-0.022583
5.792;-0.0213623
5.793;-0.0204468
5.794;-0.0192261
5.795;-0.0180054
5.796;-0.0167847
5.797;-0.0158691
5.798;-0.015564
5.799;-0.0152588
5.8;-0.0152588
5.801;-0.0152588
5.802;-0.0158691
5.803;-0.0164795
5.804;-0.0177002
5.805;-0.0189209
5.806;-0.0204468
5.807;-0.0219727
5.808;-0.0231934
5.809;-0.0247192
5.81;-0.0256348
5.811;-0.0265503
5.812;-0.0274658
5.813;-0.0280762
5.814;-0.0283813
5.815;-0.0286865
5.816;-0.0289917
5.817;-0.0292969
5.818;-0.0292969
5.819;-0.0292969
5.82;-0.0296021
5.821;-0.0296021
5.822;-0.0299072
5.823;-0.0299072
5.824;-0.0296021
5.825;-0.0292969
5.826;-0.0286865
5.827;-0.0280762
5.828;-0.0268555
5.829;-0.0256348
5.83;-0.0241089
5.831;-0.022583
5.832;-0.0213623
5.833;-0.0201416
5.834;-0.0195312
5.835;-0.0189209
5.836;-0.0189209
5.837;-0.0189209
5.838;-0.0183105
5.839;-0.0177002
5.84;-0.0167847
5.841;-0.0164795
5.842;-0.0161743
5.843;-0.0164795
5.844;-0.0167847
5.845;-0.0177002
5.846;-0.0183105
5.847;-0.0183105
5.848;-0.0183105
5.849;-0.0177002
5.85;-0.0167847
5.851;-0.0164795
5.852;-0.0167847
5.853;-0.0170898
5.854;-0.017395
5.855;-0.017395
5.856;-0.017395
5.857;-0.0177002
5.858;-0.0180054
5.859;-0.0183105
5.86;-0.0186157
5.861;-0.0189209
5.862;-0.0189209
5.863;-0.0195312
5.864;-0.0204468
5.865;-0.0216675
5.866;-0.0228882
5.867;-0.0241089
5.868;-0.0247192
5.869;-0.0250244
5.87;-0.0250244
5.871;-0.0244141
5.872;-0.0241089
5.873;-0.0241089
5.874;-0.0241089
5.875;-0.0244141
5.876;-0.0247192
5.877;-0.0250244
5.878;-0.0253296
5.879;-0.0253296
5.88;-0.0250244
5.881;-0.0244141
5.882;-0.0238037
5.883;-0.0228882
5.884;-0.0222778
5.885;-0.0216675
5.886;-0.0213623
5.887;-0.0210571
5.888;-0.0210571
5.889;-0.0210571
5.89;-0.0213623
5.891;-0.0213623
5.892;-0.0213623
5.893;-0.0213623
5.894;-0.0210571
5.895;-0.020752
5.896;-0.020752
5.897;-0.0204468
5.898;-0.0204468
5.899;-0.0198364
5.9;-0.0189209
5.901;-0.0183105
5.902;-0.0183105
5.903;-0.0183105
5.904;-0.0186157
5.905;-0.0192261
5.906;-0.0198364
5.907;-0.0204468
5.908;-0.0210571
5.909;-0.0216675
5.91;-0.0219727
5.911;-0.0219727
5.912;-0.0222778
5.913;-0.0222778
5.914;-0.022583
5.915;-0.0234985
5.916;-0.0244141
5.917;-0.0256348
5.918;-0.0268555
5.919;-0.027771
5.92;-0.0286865
5.921;-0.0286865
5.922;-0.0286865
5.923;-0.0283813
5.924;-0.027771
5.925;-0.0274658
5.926;-0.0268555
5.927;-0.0265503
5.928;-0.0259399
5.929;-0.0250244
5.93;-0.0238037
5.931;-0.0228882
5.932;-0.0222778
5.933;-0.0216675
5.934;-0.0213623
5.935;-0.0213623
5.936;-0.0213623
5.937;-0.0213623
5.938;-0.0219727
5.939;-0.022583
5.94;-0.0238037
5.941;-0.0250244
5.942;-0.0262451
5.943;-0.0280762
5.944;-0.0299072
5.945;-0.0317383
5.946;-0.0332642
5.947;-0.0338745
5.948;-0.0341797
5.949;-0.0341797
5.95;-0.0341797
5.951;-0.0344849
5.952;-0.0344849
5.953;-0.0344849
5.954;-0.0338745
5.955;-0.032959
5.956;-0.0314331
5.957;-0.0292969
5.958;-0.0265503
5.959;-0.0241089
5.96;-0.0216675
5.961;-0.0198364
5.962;-0.0180054
5.963;-0.0164795
5.964;-0.0152588
5.965;-0.0140381
5.966;-0.0131226
5.967;-0.012207
5.968;-0.0115967
5.969;-0.0115967
5.97;-0.0119019
5.971;-0.0125122
5.972;-0.0137329
5.973;-0.0149536
5.974;-0.0164795
5.975;-0.0177002
5.976;-0.0192261
5.977;-0.0204468
5.978;-0.0213623
5.979;-0.0222778
5.98;-0.0228882
5.981;-0.0234985
5.982;-0.0234985
5.983;-0.0234985
5.984;-0.0228882
5.985;-0.022583
5.986;-0.0216675
5.987;-0.0210571
5.988;-0.0204468
5.989;-0.0198364
5.99;-0.0195312
5.991;-0.0192261
5.992;-0.0189209
5.993;-0.0186157
5.994;-0.0180054
5.995;-0.0170898
5.996;-0.0164795
5.997;-0.0158691
5.998;-0.0152588
5.999;-0.0149536
6;-0.0146484
6.001;-0.0140381
6.002;-0.0134277
6.003;-0.0128174
6.004;-0.012207
6.005;-0.0109863
6.006;-0.00946045
6.007;-0.00762939
6.008;-0.00579834
6.009;-0.00396729
6.01;-0.00213623
6.011;-0.000305176
6.012;0.0012207
6.013;0.00305176
6.014;0.00488281
6.015;0.00671387
6.016;0.00823975
6.017;0.0100708
6.018;0.0115967
6.019;0.0128174
6.02;0.0140381
6.021;0.0146484
6.022;0.0149536
6.023;0.0149536
6.024;0.0146484
6.025;0.0137329
6.026;0.0125122
6.027;0.0109863
6.028;0.00915527
6.029;0.00701904
6.03;0.00549316
6.031;0.00457764
6.032;0.00427246
6.033;0.00427246
6.034;0.00396729
6.035;0.00335693
6.036;0.00244141
6.037;0.00183105
6.038;0.0012207
6.039;0.0012207
6.04;0.00183105
6.041;0.00274658
6.042;0.00427246
6.043;0.00610352
6.044;0.00823975
6.045;0.010376
6.046;0.0125122
6.047;0.0146484
6.048;0.0167847
6.049;0.0189209
6.05;0.0213623
6.051;0.0238037
6.052;0.0259399
6.053;0.027771
6.054;0.0296021
6.055;0.0305176
6.056;0.0308228
6.057;0.0308228
6.058;0.0305176
6.059;0.0299072
6.06;0.0289917
6.061;0.027771
6.062;0.0262451
6.063;0.0247192
6.064;0.0228882
6.065;0.020752
6.066;0.0183105
6.067;0.0158691
6.068;0.0137329
6.069;0.0112915
6.07;0.0088501
6.071;0.00671387
6.072;0.00457764
6.073;0.00274658
6.074;0.0012207
6.075;-0.000305176
6.076;-0.00183105
6.077;-0.00335693
6.078;-0.00457764
6.079;-0.00549316
6.08;-0.00640869
6.081;-0.00762939
6.082;-0.00854492
6.083;-0.00976562
6.084;-0.0106812
6.085;-0.0115967
6.086;-0.0125122
6.087;-0.0134277
6.088;-0.0146484
6.089;-0.0158691
6.09;-0.0170898
6.091;-0.0183105
6.092;-0.0195312
6.093;-0.0210571
6.094;-0.0222778
6.095;-0.0231934
6.096;-0.0241089
6.097;-0.0247192
6.098;-0.0253296
6.099;-0.0259399
6.1;-0.0265503
6.101;-0.0271606
6.102;-0.027771
6.103;-0.0280762
6.104;-0.0280762
6.105;-0.0283813
6.106;-0.0289917
6.107;-0.0299072
6.108;-0.0308228
6.109;-0.0317383
6.11;-0.0326538
6.111;-0.0332642
6.112;-0.0332642
6.113;-0.0326538
6.114;-0.0320435
6.115;-0.0320435
6.116;-0.0320435
6.117;-0.0323486
6.118;-0.0323486
6.119;-0.0320435
6.12;-0.0314331
6.121;-0.0308228
6.122;-0.0302124
6.123;-0.0299072
6.124;-0.0292969
6.125;-0.0283813
6.126;-0.0271606
6.127;-0.0259399
6.128;-0.0250244
6.129;-0.0241089
6.13;-0.0231934
6.131;-0.022583
6.132;-0.0222778
6.133;-0.0219727
6.134;-0.0216675
6.135;-0.0216675
6.136;-0.0213623
6.137;-0.0213623
6.138;-0.0210571
6.139;-0.0204468
6.14;-0.0198364
6.141;-0.0192261
6.142;-0.0183105
6.143;-0.0177002
6.144;-0.0167847
6.145;-0.0161743
6.146;-0.015564
6.147;-0.0149536
6.148;-0.0143433
6.149;-0.0137329
6.15;-0.0134277
6.151;-0.0134277
6.152;-0.0131226
6.153;-0.0128174
6.154;-0.0125122
6.155;-0.012207
6.156;-0.0119019
6.157;-0.0115967
6.158;-0.0112915
6.159;-0.0112915
6.16;-0.0115967
6.161;-0.0119019
6.162;-0.0128174
6.163;-0.0140381
6.164;-0.0152588
6.165;-0.0167847
6.166;-0.0180054
6.167;-0.0192261
6.168;-0.0198364
6.169;-0.0204468
6.17;-0.0201416
6.171;-0.0198364
6.172;-0.0195312
6.173;-0.0195312
6.174;-0.0201416
6.175;-0.0204468
6.176;-0.020752
6.177;-0.020752
6.178;-0.0201416
6.179;-0.0195312
6.18;-0.0189209
6.181;-0.0189209
6.182;-0.0186157
6.183;-0.0186157
6.184;-0.0180054
6.185;-0.0167847
6.186;-0.0149536
6.187;-0.0125122
6.188;-0.00946045
6.189;-0.00640869
6.19;-0.00305176
6.191;0.000305176
6.192;0.00396729
6.193;0.00854492
6.194;0.0140381
6.195;0.0204468
6.196;0.0274658
6.197;0.0357056
6.198;0.045166
6.199;0.0561523
6.2;0.0686646
6.201;0.0830078
6.202;0.0985718
6.203;0.116272
6.204;0.135803
6.205;0.156555
6.206;0.178223
6.207;0.201416
6.208;0.225525
6.209;0.250549
6.21;0.276794
6.211;0.30304
6.212;0.329285
6.213;0.354004
6.214;0.376892
6.215;0.397034
6.216;0.413513
6.217;0.42572
6.218;0.432434
6.219;0.433655
6.22;0.428772
6.221;0.418701
6.222;0.403442
6.223;0.383301
6.224;0.358887
6.225;0.330505
6.226;0.298767
6.227;0.264282
6.228;0.227356
6.229;0.187988
6.23;0.147705
6.231;0.106201
6.232;0.0650024
6.233;0.0244141
6.234;-0.0143433
6.235;-0.0509644
6.236;-0.0845337
6.237;-0.114441
6.238;-0.140076
6.239;-0.161743
6.24;-0.179138
6.241;-0.192261
6.242;-0.201416
6.243;-0.206909
6.244;-0.209351
6.245;-0.209351
6.246;-0.206909
6.247;-0.202942
6.248;-0.197144
6.249;-0.190735
6.25;-0.183105
6.251;-0.174866
6.252;-0.166321
6.253;-0.157471
6.254;-0.148621
6.255;-0.140076
6.256;-0.131226
6.257;-0.122681
6.258;-0.113525
6.259;-0.104675
6.26;-0.0958252
6.261;-0.0875854
6.262;-0.0796509
6.263;-0.0726318
6.264;-0.0662231
6.265;-0.0604248
6.266;-0.0549316
6.267;-0.050354
6.268;-0.0460815
6.269;-0.0424194
6.27;-0.0393677
6.271;-0.0372314
6.272;-0.0357056
6.273;-0.03479
6.274;-0.0341797
6.275;-0.0338745
6.276;-0.0335693
6.277;-0.0332642
6.278;-0.0323486
6.279;-0.0314331
6.28;-0.0305176
6.281;-0.0296021
6.282;-0.0286865
6.283;-0.0280762
6.284;-0.0271606
6.285;-0.0262451
6.286;-0.0247192
6.287;-0.022583
6.288;-0.0198364
6.289;-0.0170898
6.29;-0.0146484
6.291;-0.0128174
6.292;-0.0115967
6.293;-0.0112915
6.294;-0.0112915
6.295;-0.0119019
6.296;-0.0128174
6.297;-0.0137329
6.298;-0.0146484
6.299;-0.0152588
6.3;-0.0164795
6.301;-0.0177002
6.302;-0.0192261
6.303;-0.020752
6.304;-0.0222778
6.305;-0.0238037
6.306;-0.0253296
6.307;-0.0268555
6.308;-0.0283813
6.309;-0.0289917
6.31;-0.0292969
6.311;-0.0292969
6.312;-0.0289917
6.313;-0.0286865
6.314;-0.027771
6.315;-0.0268555
6.316;-0.0256348
6.317;-0.0241089
6.318;-0.0222778
6.319;-0.0204468
6.32;-0.0186157
6.321;-0.0164795
6.322;-0.0149536
6.323;-0.0137329
6.324;-0.0131226
6.325;-0.0128174
6.326;-0.0128174
6.327;-0.0128174
6.328;-0.0128174
6.329;-0.0128174
6.33;-0.0128174
6.331;-0.0125122
6.332;-0.012207
6.333;-0.012207
6.334;-0.012207
6.335;-0.0125122
6.336;-0.0128174
6.337;-0.0134277
6.338;-0.0137329
6.339;-0.0140381
6.34;-0.0140381
6.341;-0.0137329
6.342;-0.0131226
6.343;-0.0125122
6.344;-0.0119019
6.345;-0.0109863
6.346;-0.0100708
6.347;-0.00915527
6.348;-0.00762939
6.349;-0.00640869
6.35;-0.00518799
6.351;-0.00427246
6.352;-0.00335693
6.353;-0.00274658
6.354;-0.00213623
6.355;-0.00152588
6.356;-0.000915527
6.357;-0.000610352
6.358;-0.000610352
6.359;-0.000305176
6.36;0
6.361;0.000305176
6.362;0.000610352
6.363;0.000610352
6.364;0.000915527
6.365;0.0012207
6.366;0.0012207
6.367;0.0012207
6.368;0.000915527
6.369;0.000610352
6.37;0.000305176
6.371;-0.000305176
6.372;-0.000610352
6.373;-0.000915527
6.374;-0.0012207
6.375;-0.00183105
6.376;-0.00213623
6.377;-0.00244141
6.378;-0.00244141
6.379;-0.00183105
6.38;-0.000915527
6.381;0.000305176
6.382;0.0012207
6.383;0.00213623
6.384;0.00274658
6.385;0.00305176
6.386;0.00305176
6.387;0.00274658
6.388;0.00244141
6.389;0.00213623
6.39;0.00213623
6.391;0.00244141
6.392;0.00366211
6.393;0.00488281
6.394;0.00610352
6.395;0.00762939
6.396;0.00854492
6.397;0.00946045
6.398;0.010376
6.399;0.0109863
6.4;0.0115967
6.401;0.0119019
6.402;0.012207
6.403;0.012207
6.404;0.0128174
6.405;0.0137329
6.406;0.0146484
6.407;0.0158691
6.408;0.0170898
6.409;0.0183105
6.41;0.0195312
6.411;0.020752
6.412;0.0222778
6.413;0.0234985
6.414;0.0247192
6.415;0.0253296
6.416;0.0256348
6.417;0.0262451
6.418;0.0265503
6.419;0.0268555
6.42;0.0268555
6.421;0.0271606
6.422;0.0271606
6.423;0.0271606
6.424;0.0271606
6.425;0.0265503
6.426;0.0259399
6.427;0.0250244
6.428;0.0244141
6.429;0.0238037
6.43;0.0234985
6.431;0.0234985
6.432;0.0234985
6.433;0.0238037
6.434;0.0241089
6.435;0.0247192
6.436;0.0253296
6.437;0.0262451
6.438;0.0274658
6.439;0.0296021
6.44;0.0320435
6.441;0.03479
6.442;0.0375366
6.443;0.0405884
6.444;0.0430298
6.445;0.045166
6.446;0.0469971
6.447;0.0485229
6.448;0.0497437
6.449;0.0506592
6.45;0.0515747
6.451;0.0524902
6.452;0.0534058
6.453;0.0543213
6.454;0.0549316
6.455;0.055542
6.456;0.0558472
6.457;0.0561523
6.458;0.0564575
6.459;0.0564575
6.46;0.0564575
6.461;0.0564575
6.462;0.0564575
6.463;0.0561523
6.464;0.0561523
6.465;0.0564575
6.466;0.0570679
6.467;0.0579834
6.468;0.0592041
6.469;0.0604248
6.47;0.0616455
6.471;0.062561
6.472;0.0631714
6.473;0.0637817
6.474;0.0643921
6.475;0.0653076
6.476;0.0662231
6.477;0.0674438
6.478;0.0683594
6.479;0.0692749
6.48;0.0695801
6.481;0.0695801
6.482;0.0692749
6.483;0.0683594
6.484;0.0674438
6.485;0.0665283
6.486;0.0656128
6.487;0.0646973
6.488;0.0637817
6.489;0.0622559
6.49;0.06073
6.491;0.0592041
6.492;0.0570679
6.493;0.0552368
6.494;0.0537109
6.495;0.0527954
6.496;0.0518799
6.497;0.0509644
6.498;0.050354
6.499;0.0497437
6.5;0.0494385
6.501;0.0488281
6.502;0.0485229
6.503;0.0479126
6.504;0.0473022
6.505;0.0469971
6.506;0.0469971
6.507;0.0469971
6.508;0.0473022
6.509;0.0469971
6.51;0.0466919
6.511;0.0460815
6.512;0.0454712
6.513;0.0448608
6.514;0.0439453
6.515;0.0424194
6.516;0.039978
6.517;0.0369263
6.518;0.0332642
6.519;0.0296021
6.52;0.0253296
6.521;0.020752
6.522;0.0164795
6.523;0.0125122
6.524;0.0088501
6.525;0.00549316
6.526;0.00213623
6.527;-0.00183105
6.528;-0.00579834
6.529;-0.010376
6.53;-0.0149536
6.531;-0.0192261
6.532;-0.0231934
6.533;-0.0265503
6.534;-0.0292969
6.535;-0.0314331
6.536;-0.032959
6.537;-0.0344849
6.538;-0.0357056
6.539;-0.0369263
6.54;-0.0384521
6.541;-0.039978
6.542;-0.0411987
6.543;-0.0418091
6.544;-0.0424194
6.545;-0.0421143
6.546;-0.0418091
6.547;-0.0415039
6.548;-0.0408936
6.549;-0.0402832
6.55;-0.0396729
6.551;-0.0390625
6.552;-0.0387573
6.553;-0.0387573
6.554;-0.0390625
6.555;-0.0393677
6.556;-0.0396729
6.557;-0.0402832
6.558;-0.0408936
6.559;-0.0415039
6.56;-0.0421143
6.561;-0.0430298
6.562;-0.0436401
6.563;-0.0442505
6.564;-0.0448608
6.565;-0.045166
6.566;-0.045166
6.567;-0.045166
6.568;-0.0454712
6.569;-0.0454712
6.57;-0.0454712
6.571;-0.0454712
6.572;-0.045166
6.573;-0.045166
6.574;-0.0445557
6.575;-0.0442505
6.576;-0.0439453
6.577;-0.043335
6.578;-0.0430298
6.579;-0.0424194
6.58;-0.0415039
6.581;-0.0408936
6.582;-0.039978
6.583;-0.0393677
6.584;-0.0384521
6.585;-0.0375366
6.586;-0.0369263
6.587;-0.0360107
6.588;-0.0350952
6.589;-0.0344849
6.59;-0.0338745
6.591;-0.0332642
6.592;-0.032959
6.593;-0.032959
6.594;-0.0326538
6.595;-0.0323486
6.596;-0.0320435
6.597;-0.0314331
6.598;-0.0311279
6.599;-0.0305176
6.6;-0.0302124
6.601;-0.0299072
6.602;-0.0299072
6.603;-0.0299072
6.604;-0.0299072
6.605;-0.0299072
6.606;-0.0296021
6.607;-0.0296021
6.608;-0.0292969
6.609;-0.0289917
6.61;-0.0289917
6.611;-0.0292969
6.612;-0.0296021
6.613;-0.0299072
6.614;-0.0305176
6.615;-0.0308228
6.616;-0.0308228
6.617;-0.0305176
6.618;-0.0302124
6.619;-0.0299072
6.62;-0.0299072
6.621;-0.0299072
6.622;-0.0296021
6.623;-0.0296021
6.624;-0.0292969
6.625;-0.0286865
6.626;-0.027771
6.627;-0.0268555
6.628;-0.0253296
6.629;-0.0244141
6.63;-0.0231934
6.631;-0.0219727
6.632;-0.0201416
6.633;-0.0183105
6.634;-0.0167847
6.635;-0.0152588
6.636;-0.0137329
6.637;-0.0125122
6.638;-0.0112915
6.639;-0.0100708
6.64;-0.00915527
6.641;-0.00854492
6.642;-0.00793457
6.643;-0.00793457
6.644;-0.00823975
6.645;-0.00946045
6.646;-0.0106812
6.647;-0.012207
6.648;-0.0134277
6.649;-0.0140381
6.65;-0.0149536
6.651;-0.0158691
6.652;-0.0164795
6.653;-0.0170898
6.654;-0.017395
6.655;-0.0180054
6.656;-0.0186157
6.657;-0.0195312
6.658;-0.0201416
6.659;-0.0201416
6.66;-0.0198364
6.661;-0.0189209
6.662;-0.0180054
6.663;-0.0170898
6.664;-0.0164795
6.665;-0.0158691
6.666;-0.015564
6.667;-0.0149536
6.668;-0.0146484
6.669;-0.0146484
6.67;-0.0149536
6.671;-0.0149536
6.672;-0.0152588
6.673;-0.0152588
6.674;-0.0152588
6.675;-0.0149536
6.676;-0.0146484
6.677;-0.0143433
6.678;-0.0140381
6.679;-0.0140381
6.68;-0.0140381
6.681;-0.0140381
6.682;-0.0143433
6.683;-0.0146484
6.684;-0.0149536
6.685;-0.0152588
6.686;-0.0152588
6.687;-0.015564
6.688;-0.0152588
6.689;-0.0152588
6.69;-0.0152588
6.691;-0.015564
6.692;-0.0161743
6.693;-0.0170898
6.694;-0.0177002
6.695;-0.0183105
6.696;-0.0183105
6.697;-0.0183105
6.698;-0.0180054
6.699;-0.0177002
6.7;-0.0177002
6.701;-0.0180054
6.702;-0.0180054
6.703;-0.0177002
6.704;-0.017395
6.705;-0.017395
6.706;-0.0170898
6.707;-0.0170898
6.708;-0.0170898
6.709;-0.0170898
6.71;-0.0177002
6.711;-0.0186157
6.712;-0.0192261
6.713;-0.0201416
6.714;-0.020752
6.715;-0.0213623
6.716;-0.0216675
6.717;-0.0219727
6.718;-0.0228882
6.719;-0.0234985
6.72;-0.0244141
6.721;-0.0247192
6.722;-0.0253296
6.723;-0.0256348
6.724;-0.0259399
6.725;-0.0265503
6.726;-0.0271606
6.727;-0.0274658
6.728;-0.027771
6.729;-0.0280762
6.73;-0.0280762
6.731;-0.027771
6.732;-0.027771
6.733;-0.0271606
6.734;-0.0262451
6.735;-0.0250244
6.736;-0.0238037
6.737;-0.022583
6.738;-0.0213623
6.739;-0.0204468
6.74;-0.0204468
6.741;-0.0210571
6.742;-0.0219727
6.743;-0.0222778
6.744;-0.0219727
6.745;-0.0210571
6.746;-0.0198364
6.747;-0.0189209
6.748;-0.0177002
6.749;-0.0167847
6.75;-0.0158691
6.751;-0.015564
6.752;-0.0158691
6.753;-0.0161743
6.754;-0.0167847
6.755;-0.0177002
6.756;-0.0186157
6.757;-0.0195312
6.758;-0.020752
6.759;-0.0219727
6.76;-0.0231934
6.761;-0.0234985
6.762;-0.0241089
6.763;-0.0241089
6.764;-0.0244141
6.765;-0.0244141
6.766;-0.0244141
6.767;-0.0247192
6.768;-0.0250244
6.769;-0.0253296
6.77;-0.0256348
6.771;-0.0259399
6.772;-0.0262451
6.773;-0.0265503
6.774;-0.0271606
6.775;-0.0274658
6.776;-0.0280762
6.777;-0.0283813
6.778;-0.0283813
6.779;-0.0280762
6.78;-0.027771
6.781;-0.027771
6.782;-0.0280762
6.783;-0.0283813
6.784;-0.0286865
6.785;-0.0286865
6.786;-0.0286865
6.787;-0.0283813
6.788;-0.0280762
6.789;-0.027771
6.79;-0.0271606
6.791;-0.0262451
6.792;-0.0253296
6.793;-0.0241089
6.794;-0.0228882
6.795;-0.0216675
6.796;-0.0198364
6.797;-0.0183105
6.798;-0.0170898
6.799;-0.0161743
6.8;-0.0152588
6.801;-0.0146484
6.802;-0.0140381
6.803;-0.0140381
6.804;-0.0137329
6.805;-0.0140381
6.806;-0.0137329
6.807;-0.0137329
6.808;-0.0134277
6.809;-0.0131226
6.81;-0.0128174
6.811;-0.0128174
6.812;-0.0128174
6.813;-0.0125122
6.814;-0.0125122
6.815;-0.012207
6.816;-0.0125122
6.817;-0.0128174
6.818;-0.0134277
6.819;-0.0140381
6.82;-0.0149536
6.821;-0.0152588
6.822;-0.015564
6.823;-0.0158691
6.824;-0.015564
6.825;-0.015564
