0;0.00762939
0.001;0.00946045
0.002;0.0119019
0.003;0.0143433
0.004;0.0170898
0.005;0.0201416
0.006;0.0228882
0.007;0.0253296
0.008;0.0274658
0.009;0.0296021
0.01;0.0317383
0.011;0.0341797
0.012;0.0366211
0.013;0.0393677
0.014;0.0421143
0.015;0.0448608
0.016;0.0479126
0.017;0.0509644
0.018;0.0537109
0.019;0.0567627
0.02;0.0595093
0.021;0.062561
0.022;0.0656128
0.023;0.0686646
0.024;0.0717163
0.025;0.0747681
0.026;0.0775146
0.027;0.0805664
0.028;0.0836182
0.029;0.0863647
0.03;0.0891113
0.031;0.0918579
0.032;0.0942993
0.033;0.0964355
0.034;0.098877
0.035;0.100708
0.036;0.102844
0.037;0.104675
0.038;0.106506
0.039;0.108337
0.04;0.110474
0.041;0.112305
0.042;0.113831
0.043;0.115662
0.044;0.118103
0.045;0.120544
0.046;0.123596
0.047;0.126648
0.048;0.1297
0.049;0.133057
0.05;0.136719
0.051;0.139771
0.052;0.142822
0.053;0.145569
0.054;0.14801
0.055;0.149841
0.056;0.151062
0.057;0.151978
0.058;0.152588
0.059;0.152588
0.06;0.152283
0.061;0.151978
0.062;0.151672
0.063;0.151367
0.064;0.150452
0.065;0.148926
0.066;0.146484
0.067;0.143738
0.068;0.140686
0.069;0.137634
0.07;0.134888
0.071;0.132141
0.072;0.129089
0.073;0.126343
0.074;0.123596
0.075;0.121155
0.076;0.118713
0.077;0.116577
0.078;0.114746
0.079;0.11322
0.08;0.111694
0.081;0.109253
0.082;0.106506
0.083;0.103455
0.084;0.100098
0.085;0.0964355
0.086;0.0924683
0.087;0.088501
0.088;0.0845337
0.089;0.0802612
0.09;0.0759888
0.091;0.0714111
0.092;0.0665283
0.093;0.0613403
0.094;0.0564575
0.095;0.0512695
0.096;0.0460815
0.097;0.0411987
0.098;0.0360107
0.099;0.0311279
0.1;0.0265503
0.101;0.0216675
0.102;0.017395
0.103;0.0128174
0.104;0.00854492
0.105;0.00457764
0.106;0.000915527
0.107;-0.00305176
0.108;-0.00671387
0.109;-0.0106812
0.11;-0.0143433
0.111;-0.0180054
0.112;-0.0210571
0.113;-0.0238037
0.114;-0.0259399
0.115;-0.0280762
0.116;-0.0302124
0.117;-0.0320435
0.118;-0.0338745
0.119;-0.0354004
0.12;-0.0366211
0.121;-0.0378418
0.122;-0.0390625
0.123;-0.0402832
0.124;-0.0418091
0.125;-0.0436401
0.126;-0.0457764
0.127;-0.0473022
0.128;-0.0482178
0.129;-0.0479126
0.13;-0.0466919
0.131;-0.0457764
0.132;-0.045166
0.133;-0.0457764
0.134;-0.0469971
0.135;-0.0488281
0.136;-0.0500488
0.137;-0.0509644
0.138;-0.0509644
0.139;-0.050354
0.14;-0.0497437
0.141;-0.0494385
0.142;-0.0488281
0.143;-0.0488281
0.144;-0.0491333
0.145;-0.0494385
0.146;-0.0500488
0.147;-0.0506592
0.148;-0.0512695
0.149;-0.0518799
0.15;-0.0524902
0.151;-0.0527954
0.152;-0.0534058
0.153;-0.0543213
0.154;-0.055542
0.155;-0.0570679
0.156;-0.0585938
0.157;-0.0598145
0.158;-0.0604248
0.159;-0.0610352
0.16;-0.0613403
0.161;-0.0616455
0.162;-0.0616455
0.163;-0.0616455
0.164;-0.0613403
0.165;-0.0610352
0.166;-0.06073
0.167;-0.0604248
0.168;-0.0601196
0.169;-0.0598145
0.17;-0.0592041
0.171;-0.0582886
0.172;-0.0570679
0.173;-0.055542
0.174;-0.0540161
0.175;-0.0527954
0.176;-0.0518799
0.177;-0.0509644
0.178;-0.050354
0.179;-0.0497437
0.18;-0.0491333
0.181;-0.0488281
0.182;-0.0488281
0.183;-0.0488281
0.184;-0.0494385
0.185;-0.0500488
0.186;-0.0506592
0.187;-0.0512695
0.188;-0.0518799
0.189;-0.0524902
0.19;-0.0531006
0.191;-0.0537109
0.192;-0.0546265
0.193;-0.055542
0.194;-0.0564575
0.195;-0.0576782
0.196;-0.0585938
0.197;-0.0601196
0.198;-0.0613403
0.199;-0.062561
0.2;-0.0631714
0.201;-0.0637817
0.202;-0.0643921
0.203;-0.0643921
0.204;-0.0646973
0.205;-0.0646973
0.206;-0.0643921
0.207;-0.0637817
0.208;-0.062561
0.209;-0.0610352
0.21;-0.0592041
0.211;-0.0567627
0.212;-0.0546265
0.213;-0.0521851
0.214;-0.0500488
0.215;-0.0479126
0.216;-0.0457764
0.217;-0.0436401
0.218;-0.0415039
0.219;-0.0393677
0.22;-0.0375366
0.221;-0.0357056
0.222;-0.0341797
0.223;-0.0332642
0.224;-0.0326538
0.225;-0.0323486
0.226;-0.032959
0.227;-0.0332642
0.228;-0.0338745
0.229;-0.0341797
0.23;-0.0344849
0.231;-0.0350952
0.232;-0.0360107
0.233;-0.0375366
0.234;-0.0390625
0.235;-0.0408936
0.236;-0.0418091
0.237;-0.0424194
0.238;-0.0424194
0.239;-0.0421143
0.24;-0.0415039
0.241;-0.0408936
0.242;-0.039978
0.243;-0.0387573
0.244;-0.0375366
0.245;-0.0366211
0.246;-0.0357056
0.247;-0.0350952
0.248;-0.0344849
0.249;-0.0332642
0.25;-0.0314331
0.251;-0.0289917
0.252;-0.0271606
0.253;-0.0256348
0.254;-0.0244141
0.255;-0.0241089
0.256;-0.0238037
0.257;-0.0238037
0.258;-0.0241089
0.259;-0.0244141
0.26;-0.0247192
0.261;-0.0253296
0.262;-0.0265503
0.263;-0.027771
0.264;-0.0296021
0.265;-0.0314331
0.266;-0.032959
0.267;-0.0344849
0.268;-0.0357056
0.269;-0.0360107
0.27;-0.0360107
0.271;-0.0354004
0.272;-0.0350952
0.273;-0.0344849
0.274;-0.0344849
0.275;-0.0341797
0.276;-0.0341797
0.277;-0.0341797
0.278;-0.0338745
0.279;-0.0335693
0.28;-0.032959
0.281;-0.0323486
0.282;-0.0314331
0.283;-0.0302124
0.284;-0.0292969
0.285;-0.0283813
0.286;-0.0271606
0.287;-0.0262451
0.288;-0.0253296
0.289;-0.0253296
0.29;-0.0256348
0.291;-0.0262451
0.292;-0.0268555
0.293;-0.027771
0.294;-0.0286865
0.295;-0.0292969
0.296;-0.0299072
0.297;-0.0305176
0.298;-0.0308228
0.299;-0.0308228
0.3;-0.0305176
0.301;-0.0299072
0.302;-0.0292969
0.303;-0.0286865
0.304;-0.0280762
0.305;-0.0280762
0.306;-0.0286865
0.307;-0.0289917
0.308;-0.0289917
0.309;-0.0286865
0.31;-0.0283813
0.311;-0.0280762
0.312;-0.0280762
0.313;-0.0280762
0.314;-0.0283813
0.315;-0.0283813
0.316;-0.027771
0.317;-0.0274658
0.318;-0.0271606
0.319;-0.0271606
0.32;-0.027771
0.321;-0.0286865
0.322;-0.0302124
0.323;-0.0317383
0.324;-0.0326538
0.325;-0.0326538
0.326;-0.0314331
0.327;-0.0296021
0.328;-0.027771
0.329;-0.0262451
0.33;-0.0253296
0.331;-0.0247192
0.332;-0.0241089
0.333;-0.0238037
0.334;-0.0231934
0.335;-0.0222778
0.336;-0.0210571
0.337;-0.0198364
0.338;-0.0189209
0.339;-0.0180054
0.34;-0.0177002
0.341;-0.017395
0.342;-0.0170898
0.343;-0.0170898
0.344;-0.017395
0.345;-0.0180054
0.346;-0.0186157
0.347;-0.0192261
0.348;-0.0201416
0.349;-0.0210571
0.35;-0.0219727
0.351;-0.0228882
0.352;-0.0238037
0.353;-0.0247192
0.354;-0.0256348
0.355;-0.0262451
0.356;-0.0268555
0.357;-0.027771
0.358;-0.0283813
0.359;-0.0292969
0.36;-0.0299072
0.361;-0.0302124
0.362;-0.0302124
0.363;-0.0302124
0.364;-0.0302124
0.365;-0.0305176
0.366;-0.0311279
0.367;-0.0320435
0.368;-0.032959
0.369;-0.0335693
0.37;-0.0338745
0.371;-0.0338745
0.372;-0.0332642
0.373;-0.0323486
0.374;-0.0314331
0.375;-0.0305176
0.376;-0.0296021
0.377;-0.0286865
0.378;-0.027771
0.379;-0.0265503
0.38;-0.0253296
0.381;-0.0238037
0.382;-0.0222778
0.383;-0.0210571
0.384;-0.0195312
0.385;-0.0183105
0.386;-0.0170898
0.387;-0.0164795
0.388;-0.0161743
0.389;-0.0161743
0.39;-0.0167847
0.391;-0.0177002
0.392;-0.0189209
0.393;-0.0204468
0.394;-0.0222778
0.395;-0.0241089
0.396;-0.0262451
0.397;-0.0280762
0.398;-0.0296021
0.399;-0.0311279
0.4;-0.0320435
0.401;-0.0326538
0.402;-0.032959
0.403;-0.0332642
0.404;-0.0332642
0.405;-0.032959
0.406;-0.032959
0.407;-0.0323486
0.408;-0.0314331
0.409;-0.0302124
0.41;-0.0286865
0.411;-0.0271606
0.412;-0.0253296
0.413;-0.0238037
0.414;-0.0222778
0.415;-0.0210571
0.416;-0.0198364
0.417;-0.0189209
0.418;-0.0183105
0.419;-0.0177002
0.42;-0.017395
0.421;-0.0170898
0.422;-0.0170898
0.423;-0.0170898
0.424;-0.017395
0.425;-0.0177002
0.426;-0.0186157
0.427;-0.0192261
0.428;-0.0201416
0.429;-0.0210571
0.43;-0.0219727
0.431;-0.0222778
0.432;-0.022583
0.433;-0.022583
0.434;-0.0222778
0.435;-0.0216675
0.436;-0.0210571
0.437;-0.0201416
0.438;-0.0195312
0.439;-0.0186157
0.44;-0.0183105
0.441;-0.0180054
0.442;-0.0177002
0.443;-0.0170898
0.444;-0.0152588
0.445;-0.012207
0.446;-0.00793457
0.447;-0.00335693
0.448;0.00183105
0.449;0.00610352
0.45;0.00976562
0.451;0.0128174
0.452;0.0158691
0.453;0.0183105
0.454;0.0210571
0.455;0.0234985
0.456;0.0256348
0.457;0.0271606
0.458;0.0286865
0.459;0.0296021
0.46;0.0302124
0.461;0.0305176
0.462;0.0308228
0.463;0.0305176
0.464;0.0299072
0.465;0.0286865
0.466;0.0268555
0.467;0.0250244
0.468;0.0228882
0.469;0.0210571
0.47;0.0204468
0.471;0.020752
0.472;0.0216675
0.473;0.0231934
0.474;0.0250244
0.475;0.0268555
0.476;0.0289917
0.477;0.0314331
0.478;0.0341797
0.479;0.0366211
0.48;0.0390625
0.481;0.0418091
0.482;0.0448608
0.483;0.0479126
0.484;0.050354
0.485;0.0524902
0.486;0.0537109
0.487;0.0540161
0.488;0.0531006
0.489;0.0512695
0.49;0.0488281
0.491;0.0466919
0.492;0.0445557
0.493;0.0427246
0.494;0.0408936
0.495;0.0384521
0.496;0.0360107
0.497;0.032959
0.498;0.0296021
0.499;0.0262451
0.5;0.0228882
0.501;0.0195312
0.502;0.0161743
0.503;0.0128174
0.504;0.00976562
0.505;0.00671387
0.506;0.00366211
0.507;0.000610352
0.508;-0.00213623
0.509;-0.00518799
0.51;-0.00823975
0.511;-0.0112915
0.512;-0.0143433
0.513;-0.017395
0.514;-0.0201416
0.515;-0.0231934
0.516;-0.0259399
0.517;-0.0283813
0.518;-0.0308228
0.519;-0.032959
0.52;-0.0350952
0.521;-0.0366211
0.522;-0.038147
0.523;-0.0390625
0.524;-0.0396729
0.525;-0.039978
0.526;-0.039978
0.527;-0.039978
0.528;-0.039978
0.529;-0.0396729
0.53;-0.0393677
0.531;-0.0387573
0.532;-0.0384521
0.533;-0.038147
0.534;-0.0375366
0.535;-0.0372314
0.536;-0.0366211
0.537;-0.0360107
0.538;-0.0357056
0.539;-0.0354004
0.54;-0.0354004
0.541;-0.0354004
0.542;-0.0357056
0.543;-0.0363159
0.544;-0.0363159
0.545;-0.0360107
0.546;-0.0350952
0.547;-0.0335693
0.548;-0.0317383
0.549;-0.0302124
0.55;-0.0289917
0.551;-0.0283813
0.552;-0.0283813
0.553;-0.0280762
0.554;-0.0274658
0.555;-0.0262451
0.556;-0.0250244
0.557;-0.0238037
0.558;-0.0228882
0.559;-0.0222778
0.56;-0.0216675
0.561;-0.0213623
0.562;-0.0210571
0.563;-0.020752
0.564;-0.0204468
0.565;-0.0201416
0.566;-0.0201416
0.567;-0.0204468
0.568;-0.0213623
0.569;-0.0222778
0.57;-0.0231934
0.571;-0.0238037
0.572;-0.0244141
0.573;-0.0247192
0.574;-0.0244141
0.575;-0.0241089
0.576;-0.0234985
0.577;-0.022583
0.578;-0.0219727
0.579;-0.0210571
0.58;-0.020752
0.581;-0.020752
0.582;-0.020752
0.583;-0.0210571
0.584;-0.0210571
0.585;-0.020752
0.586;-0.0195312
0.587;-0.0177002
0.588;-0.0152588
0.589;-0.012207
0.59;-0.0088501
0.591;-0.00579834
0.592;-0.00244141
0.593;0.00152588
0.594;0.00640869
0.595;0.0134277
0.596;0.0228882
0.597;0.0341797
0.598;0.0469971
0.599;0.06073
0.6;0.0753784
0.601;0.0909424
0.602;0.108032
0.603;0.126343
0.604;0.146179
0.605;0.167542
0.606;0.190125
0.607;0.214539
0.608;0.240784
0.609;0.26886
0.61;0.299377
0.611;0.331726
0.612;0.366516
0.613;0.403442
0.614;0.441895
0.615;0.481262
0.616;0.519714
0.617;0.556335
0.618;0.588989
0.619;0.61676
0.62;0.638123
0.621;0.652466
0.622;0.65979
0.623;0.65979
0.624;0.652771
0.625;0.638428
0.626;0.617371
0.627;0.589905
0.628;0.556641
0.629;0.517883
0.63;0.473633
0.631;0.4245
0.632;0.371094
0.633;0.314331
0.634;0.255127
0.635;0.194702
0.636;0.134277
0.637;0.0750732
0.638;0.0189209
0.639;-0.0332642
0.64;-0.0799561
0.641;-0.119324
0.642;-0.150452
0.643;-0.173645
0.644;-0.188904
0.645;-0.198059
0.646;-0.202026
0.647;-0.201416
0.648;-0.196838
0.649;-0.188904
0.65;-0.178833
0.651;-0.166931
0.652;-0.154114
0.653;-0.140991
0.654;-0.127563
0.655;-0.114746
0.656;-0.102844
0.657;-0.0921631
0.658;-0.0830078
0.659;-0.0753784
0.66;-0.0689697
0.661;-0.0640869
0.662;-0.0601196
0.663;-0.057373
0.664;-0.0558472
0.665;-0.0546265
0.666;-0.0543213
0.667;-0.0543213
0.668;-0.0543213
0.669;-0.0546265
0.67;-0.0546265
0.671;-0.0543213
0.672;-0.0534058
0.673;-0.0521851
0.674;-0.0506592
0.675;-0.0491333
0.676;-0.0469971
0.677;-0.0448608
0.678;-0.0424194
0.679;-0.039978
0.68;-0.0375366
0.681;-0.0350952
0.682;-0.032959
0.683;-0.0314331
0.684;-0.0296021
0.685;-0.0280762
0.686;-0.0265503
0.687;-0.0250244
0.688;-0.0234985
0.689;-0.0222778
0.69;-0.0213623
0.691;-0.020752
0.692;-0.0204468
0.693;-0.0201416
0.694;-0.0201416
0.695;-0.0204468
0.696;-0.0210571
0.697;-0.0219727
0.698;-0.022583
0.699;-0.022583
0.7;-0.0219727
0.701;-0.0210571
0.702;-0.0201416
0.703;-0.0189209
0.704;-0.0183105
0.705;-0.0177002
0.706;-0.017395
0.707;-0.0167847
0.708;-0.0164795
0.709;-0.0161743
0.71;-0.0158691
0.711;-0.0152588
0.712;-0.0146484
0.713;-0.0143433
0.714;-0.0137329
0.715;-0.0134277
0.716;-0.0128174
0.717;-0.012207
0.718;-0.0112915
0.719;-0.00976562
0.72;-0.00854492
0.721;-0.00732422
0.722;-0.00640869
0.723;-0.00549316
0.724;-0.00488281
0.725;-0.00457764
0.726;-0.00457764
0.727;-0.00488281
0.728;-0.00518799
0.729;-0.00579834
0.73;-0.00640869
0.731;-0.00671387
0.732;-0.00732422
0.733;-0.00732422
0.734;-0.00671387
0.735;-0.00579834
0.736;-0.00488281
0.737;-0.00427246
0.738;-0.00396729
0.739;-0.00396729
0.74;-0.00396729
0.741;-0.00396729
0.742;-0.00366211
0.743;-0.00305176
0.744;-0.00213623
0.745;-0.000915527
0.746;0.000305176
0.747;0.000915527
0.748;0.00183105
0.749;0.00305176
0.75;0.00427246
0.751;0.00610352
0.752;0.00762939
0.753;0.00854492
0.754;0.00946045
0.755;0.00976562
0.756;0.00976562
0.757;0.00946045
0.758;0.0088501
0.759;0.00854492
0.76;0.00854492
0.761;0.00854492
0.762;0.0088501
0.763;0.00946045
0.764;0.0100708
0.765;0.0109863
0.766;0.012207
0.767;0.0131226
0.768;0.0143433
0.769;0.0152588
0.77;0.0161743
0.771;0.0170898
0.772;0.0180054
0.773;0.0189209
0.774;0.0198364
0.775;0.020752
0.776;0.0216675
0.777;0.022583
0.778;0.0241089
0.779;0.0262451
0.78;0.0286865
0.781;0.0317383
0.782;0.0341797
0.783;0.0363159
0.784;0.0384521
0.785;0.039978
0.786;0.0411987
0.787;0.0427246
0.788;0.0442505
0.789;0.0463867
0.79;0.0485229
0.791;0.0512695
0.792;0.0543213
0.793;0.057373
0.794;0.0604248
0.795;0.0631714
0.796;0.0656128
0.797;0.0683594
0.798;0.0708008
0.799;0.0732422
0.8;0.0756836
0.801;0.0775146
0.802;0.0790405
0.803;0.0805664
0.804;0.0823975
0.805;0.0842285
0.806;0.0866699
0.807;0.0888062
0.808;0.0909424
0.809;0.0930786
0.81;0.0952148
0.811;0.0970459
0.812;0.098877
0.813;0.100403
0.814;0.102234
0.815;0.10376
0.816;0.105286
0.817;0.106506
0.818;0.107422
0.819;0.108337
0.82;0.110168
0.821;0.112915
0.822;0.116272
0.823;0.119629
0.824;0.122375
0.825;0.124817
0.826;0.126953
0.827;0.129395
0.828;0.131531
0.829;0.133972
0.83;0.136719
0.831;0.139771
0.832;0.142517
0.833;0.145264
0.834;0.14801
0.835;0.150757
0.836;0.153198
0.837;0.15564
0.838;0.157166
0.839;0.158691
0.84;0.159912
0.841;0.160828
0.842;0.161133
0.843;0.161133
0.844;0.160828
0.845;0.159607
0.846;0.158081
0.847;0.156555
0.848;0.155334
0.849;0.154114
0.85;0.153198
0.851;0.151672
0.852;0.150146
0.853;0.148315
0.854;0.145874
0.855;0.143433
0.856;0.140381
0.857;0.137634
0.858;0.134583
0.859;0.131836
0.86;0.129395
0.861;0.127869
0.862;0.126343
0.863;0.125122
0.864;0.123901
0.865;0.12207
0.866;0.119934
0.867;0.117188
0.868;0.114136
0.869;0.110779
0.87;0.107727
0.871;0.105286
0.872;0.103455
0.873;0.101624
0.874;0.0997925
0.875;0.0976562
0.876;0.0946045
0.877;0.0909424
0.878;0.0869751
0.879;0.083313
0.88;0.0793457
0.881;0.0756836
0.882;0.0717163
0.883;0.067749
0.884;0.0634766
0.885;0.0592041
0.886;0.0552368
0.887;0.0512695
0.888;0.0476074
0.889;0.0439453
0.89;0.0402832
0.891;0.0366211
0.892;0.0326538
0.893;0.0286865
0.894;0.0250244
0.895;0.0213623
0.896;0.0177002
0.897;0.0143433
0.898;0.0119019
0.899;0.010376
0.9;0.00976562
0.901;0.0088501
0.902;0.00823975
0.903;0.00732422
0.904;0.00610352
0.905;0.00488281
0.906;0.00396729
0.907;0.00305176
0.908;0.00183105
0.909;0.000915527
0.91;0.000305176
0.911;-0.000610352
0.912;-0.00152588
0.913;-0.00244141
0.914;-0.00335693
0.915;-0.00427246
0.916;-0.00549316
0.917;-0.00701904
0.918;-0.00854492
0.919;-0.0100708
0.92;-0.0112915
0.921;-0.0125122
0.922;-0.0137329
0.923;-0.0149536
0.924;-0.0161743
0.925;-0.0167847
0.926;-0.017395
0.927;-0.0180054
0.928;-0.0186157
0.929;-0.0189209
0.93;-0.0192261
0.931;-0.0189209
0.932;-0.0186157
0.933;-0.0180054
0.934;-0.017395
0.935;-0.0164795
0.936;-0.0158691
0.937;-0.0152588
0.938;-0.0146484
0.939;-0.0140381
0.94;-0.0137329
0.941;-0.0137329
0.942;-0.0143433
0.943;-0.0149536
0.944;-0.0158691
0.945;-0.0161743
0.946;-0.0161743
0.947;-0.0158691
0.948;-0.015564
0.949;-0.0149536
0.95;-0.0143433
0.951;-0.0140381
0.952;-0.0140381
0.953;-0.0140381
0.954;-0.0140381
0.955;-0.0134277
0.956;-0.0125122
0.957;-0.0115967
0.958;-0.0109863
0.959;-0.0106812
0.96;-0.010376
0.961;-0.0100708
0.962;-0.00946045
0.963;-0.0088501
0.964;-0.00823975
0.965;-0.00762939
0.966;-0.00701904
0.967;-0.00701904
0.968;-0.00701904
0.969;-0.00732422
0.97;-0.00793457
0.971;-0.00823975
0.972;-0.00823975
0.973;-0.00793457
0.974;-0.00732422
0.975;-0.00701904
0.976;-0.00732422
0.977;-0.00793457
0.978;-0.00823975
0.979;-0.00823975
0.98;-0.00762939
0.981;-0.00671387
0.982;-0.00579834
0.983;-0.00488281
0.984;-0.00427246
0.985;-0.00366211
0.986;-0.00305176
0.987;-0.00244141
0.988;-0.00152588
0.989;-0.000610352
0.99;0
0.991;0.000305176
0.992;0.000610352
0.993;0.000610352
0.994;0.000610352
0.995;0.000610352
0.996;0.000305176
0.997;0
0.998;-0.000305176
0.999;-0.000610352
1;-0.000610352
1.001;-0.000915527
1.002;-0.000915527
1.003;-0.000915527
1.004;-0.000915527
1.005;-0.0012207
1.006;-0.000915527
1.007;-0.000610352
1.008;0.000305176
1.009;0.00152588
1.01;0.00366211
1.011;0.00579834
1.012;0.00793457
1.013;0.00946045
1.014;0.0109863
1.015;0.0119019
1.016;0.0125122
1.017;0.0128174
1.018;0.0131226
1.019;0.0131226
1.02;0.0134277
1.021;0.0137329
1.022;0.0137329
1.023;0.0134277
1.024;0.0131226
1.025;0.0125122
1.026;0.0119019
1.027;0.0115967
1.028;0.0112915
1.029;0.0106812
1.03;0.00946045
1.031;0.00854492
1.032;0.00732422
1.033;0.00640869
1.034;0.00610352
1.035;0.00640869
1.036;0.00701904
1.037;0.00793457
1.038;0.00915527
1.039;0.010376
1.04;0.0115967
1.041;0.0131226
1.042;0.0143433
1.043;0.015564
1.044;0.0164795
1.045;0.017395
1.046;0.0180054
1.047;0.0186157
1.048;0.0192261
1.049;0.0195312
1.05;0.0195312
1.051;0.0198364
1.052;0.0198364
1.053;0.0201416
1.054;0.0201416
1.055;0.0198364
1.056;0.0195312
1.057;0.0189209
1.058;0.0183105
1.059;0.0183105
1.06;0.0183105
1.061;0.0189209
1.062;0.0195312
1.063;0.0204468
1.064;0.020752
1.065;0.0210571
1.066;0.0210571
1.067;0.020752
1.068;0.020752
1.069;0.020752
1.07;0.020752
1.071;0.0204468
1.072;0.0204468
1.073;0.0204468
1.074;0.0198364
1.075;0.0195312
1.076;0.0192261
1.077;0.0192261
1.078;0.0195312
1.079;0.0198364
1.08;0.0201416
1.081;0.0201416
1.082;0.0195312
1.083;0.0189209
1.084;0.0183105
1.085;0.0177002
1.086;0.017395
1.087;0.0170898
1.088;0.0170898
1.089;0.0170898
1.09;0.017395
1.091;0.0180054
1.092;0.0183105
1.093;0.0189209
1.094;0.0189209
1.095;0.0189209
1.096;0.0189209
1.097;0.0192261
1.098;0.0195312
1.099;0.0201416
1.1;0.0204468
1.101;0.0204468
1.102;0.0204468
1.103;0.0198364
1.104;0.0195312
1.105;0.0189209
1.106;0.0180054
1.107;0.0170898
1.108;0.0164795
1.109;0.015564
1.11;0.0146484
1.111;0.0140381
1.112;0.0134277
1.113;0.0128174
1.114;0.0125122
1.115;0.0119019
1.116;0.0115967
1.117;0.0112915
1.118;0.0109863
1.119;0.0106812
1.12;0.0109863
1.121;0.0112915
1.122;0.0119019
1.123;0.0125122
1.124;0.0131226
1.125;0.0143433
1.126;0.0149536
1.127;0.015564
1.128;0.0158691
1.129;0.0167847
1.13;0.0183105
1.131;0.0210571
1.132;0.0238037
1.133;0.0256348
1.134;0.0265503
1.135;0.0268555
1.136;0.0265503
1.137;0.0259399
1.138;0.0253296
1.139;0.0250244
1.14;0.0250244
1.141;0.0247192
1.142;0.0244141
1.143;0.0234985
1.144;0.0228882
1.145;0.0216675
1.146;0.020752
1.147;0.0198364
1.148;0.0192261
1.149;0.0183105
1.15;0.0170898
1.151;0.0158691
1.152;0.0143433
1.153;0.0128174
1.154;0.0112915
1.155;0.0100708
1.156;0.00946045
1.157;0.00915527
1.158;0.00915527
1.159;0.00915527
1.16;0.00915527
1.161;0.00976562
1.162;0.0106812
1.163;0.0112915
1.164;0.0125122
1.165;0.0131226
1.166;0.0140381
1.167;0.0146484
1.168;0.0146484
1.169;0.0149536
1.17;0.0149536
1.171;0.0152588
1.172;0.015564
1.173;0.0158691
1.174;0.0161743
1.175;0.0164795
1.176;0.0164795
1.177;0.0161743
1.178;0.0158691
1.179;0.0149536
1.18;0.0140381
1.181;0.0128174
1.182;0.0112915
1.183;0.0100708
1.184;0.00915527
1.185;0.00854492
1.186;0.00793457
1.187;0.00793457
1.188;0.00793457
1.189;0.00793457
1.19;0.00793457
1.191;0.0088501
1.192;0.0100708
1.193;0.0119019
1.194;0.0140381
1.195;0.0164795
1.196;0.0189209
1.197;0.0210571
1.198;0.0231934
1.199;0.0253296
1.2;0.0274658
1.201;0.0305176
1.202;0.03479
1.203;0.0390625
1.204;0.0436401
1.205;0.0473022
1.206;0.050354
1.207;0.0524902
1.208;0.0540161
1.209;0.0552368
1.21;0.0558472
1.211;0.0564575
1.212;0.0570679
1.213;0.057373
1.214;0.0579834
1.215;0.0582886
1.216;0.0585938
1.217;0.0585938
1.218;0.0588989
1.219;0.0592041
1.22;0.0601196
1.221;0.0610352
1.222;0.0619507
1.223;0.062561
1.224;0.0634766
1.225;0.0650024
1.226;0.0671387
1.227;0.0695801
1.228;0.0726318
1.229;0.0753784
1.23;0.0778198
1.231;0.0802612
1.232;0.0827026
1.233;0.0848389
1.234;0.0869751
1.235;0.088501
1.236;0.0894165
1.237;0.0897217
1.238;0.0891113
1.239;0.0881958
1.24;0.0866699
1.241;0.0845337
1.242;0.0817871
1.243;0.0784302
1.244;0.0747681
1.245;0.0704956
1.246;0.0665283
1.247;0.062561
1.248;0.0588989
1.249;0.0552368
1.25;0.0515747
1.251;0.0482178
1.252;0.0448608
1.253;0.0421143
1.254;0.0396729
1.255;0.0375366
1.256;0.0354004
1.257;0.032959
1.258;0.0299072
1.259;0.0268555
1.26;0.0241089
1.261;0.0210571
1.262;0.0183105
1.263;0.0152588
1.264;0.0125122
1.265;0.00946045
1.266;0.00671387
1.267;0.00427246
1.268;0.00152588
1.269;-0.000915527
1.27;-0.00396729
1.271;-0.00701904
1.272;-0.00976562
1.273;-0.0125122
1.274;-0.0146484
1.275;-0.0161743
1.276;-0.0170898
1.277;-0.0180054
1.278;-0.0186157
1.279;-0.0192261
1.28;-0.0195312
1.281;-0.0195312
1.282;-0.0189209
1.283;-0.0177002
1.284;-0.0158691
1.285;-0.0140381
1.286;-0.0119019
1.287;-0.0100708
1.288;-0.00854492
1.289;-0.00762939
1.29;-0.00671387
1.291;-0.00640869
1.292;-0.00610352
1.293;-0.00610352
1.294;-0.00640869
1.295;-0.00701904
1.296;-0.00762939
1.297;-0.00823975
1.298;-0.0088501
1.299;-0.00915527
1.3;-0.00946045
1.301;-0.0100708
1.302;-0.0109863
1.303;-0.0119019
1.304;-0.0125122
1.305;-0.0128174
1.306;-0.0131226
1.307;-0.0131226
1.308;-0.0134277
1.309;-0.0137329
1.31;-0.0140381
1.311;-0.0140381
1.312;-0.0140381
1.313;-0.0140381
1.314;-0.0137329
1.315;-0.0137329
1.316;-0.0137329
1.317;-0.0137329
1.318;-0.0140381
1.319;-0.0134277
1.32;-0.012207
1.321;-0.0106812
1.322;-0.00946045
1.323;-0.0088501
1.324;-0.0088501
1.325;-0.00915527
1.326;-0.00946045
1.327;-0.00976562
1.328;-0.010376
1.329;-0.0112915
1.33;-0.0125122
1.331;-0.0140381
1.332;-0.0152588
1.333;-0.0164795
1.334;-0.017395
1.335;-0.0180054
1.336;-0.0186157
1.337;-0.0195312
1.338;-0.0204468
1.339;-0.0210571
1.34;-0.0213623
1.341;-0.0213623
1.342;-0.0201416
1.343;-0.0180054
1.344;-0.0143433
1.345;-0.0088501
1.346;-0.00183105
1.347;0.00671387
1.348;0.0164795
1.349;0.027771
1.35;0.0402832
1.351;0.0543213
1.352;0.0695801
1.353;0.0863647
1.354;0.104675
1.355;0.123901
1.356;0.144653
1.357;0.166626
1.358;0.190125
1.359;0.215454
1.36;0.242004
1.361;0.270386
1.362;0.300903
1.363;0.333252
1.364;0.367432
1.365;0.403137
1.366;0.440674
1.367;0.479431
1.368;0.518494
1.369;0.556946
1.37;0.592957
1.371;0.62439
1.372;0.649414
1.373;0.667725
1.374;0.678101
1.375;0.681152
1.376;0.67688
1.377;0.664978
1.378;0.645752
1.379;0.619812
1.38;0.587463
1.381;0.549011
1.382;0.504456
1.383;0.454712
1.384;0.400391
1.385;0.342102
1.386;0.281067
1.387;0.218506
1.388;0.155334
1.389;0.0927734
1.39;0.0326538
1.391;-0.0234985
1.392;-0.0738525
1.393;-0.117798
1.394;-0.153809
1.395;-0.182495
1.396;-0.203247
1.397;-0.21698
1.398;-0.223999
1.399;-0.225525
1.4;-0.221863
1.401;-0.214233
1.402;-0.203857
1.403;-0.190735
1.404;-0.176697
1.405;-0.161743
1.406;-0.14679
1.407;-0.132446
1.408;-0.118713
1.409;-0.105896
1.41;-0.0939941
1.411;-0.083313
1.412;-0.0738525
1.413;-0.065918
1.414;-0.0585938
1.415;-0.0524902
1.416;-0.0473022
1.417;-0.043335
1.418;-0.0405884
1.419;-0.0387573
1.42;-0.0372314
1.421;-0.0357056
1.422;-0.0344849
1.423;-0.0338745
1.424;-0.0332642
1.425;-0.032959
1.426;-0.032959
1.427;-0.0326538
1.428;-0.0320435
1.429;-0.0314331
1.43;-0.0308228
1.431;-0.0299072
1.432;-0.0292969
1.433;-0.0289917
1.434;-0.0292969
1.435;-0.0296021
1.436;-0.0299072
1.437;-0.0305176
1.438;-0.0308228
1.439;-0.0308228
1.44;-0.0311279
1.441;-0.0311279
1.442;-0.0311279
1.443;-0.0311279
1.444;-0.0311279
1.445;-0.0314331
1.446;-0.0314331
1.447;-0.0314331
1.448;-0.0311279
1.449;-0.0305176
1.45;-0.0296021
1.451;-0.0283813
1.452;-0.0274658
1.453;-0.0262451
1.454;-0.0253296
1.455;-0.0244141
1.456;-0.0238037
1.457;-0.022583
1.458;-0.0213623
1.459;-0.0198364
1.46;-0.0180054
1.461;-0.0164795
1.462;-0.0152588
1.463;-0.0140381
1.464;-0.0131226
1.465;-0.0125122
1.466;-0.0119019
1.467;-0.0115967
1.468;-0.0112915
1.469;-0.0115967
1.47;-0.012207
1.471;-0.0125122
1.472;-0.012207
1.473;-0.0119019
1.474;-0.0109863
1.475;-0.0106812
1.476;-0.0106812
1.477;-0.0109863
1.478;-0.0112915
1.479;-0.0112915
1.48;-0.0112915
1.481;-0.0109863
1.482;-0.0106812
1.483;-0.0106812
1.484;-0.0106812
1.485;-0.0109863
1.486;-0.0112915
1.487;-0.0109863
1.488;-0.010376
1.489;-0.00946045
1.49;-0.00854492
1.491;-0.00793457
1.492;-0.00732422
1.493;-0.00701904
1.494;-0.00701904
1.495;-0.00671387
1.496;-0.00610352
1.497;-0.00457764
1.498;-0.00274658
1.499;-0.0012207
1.5;0.000305176
1.501;0.00152588
1.502;0.00244141
1.503;0.00305176
1.504;0.00366211
1.505;0.00457764
1.506;0.00518799
1.507;0.00610352
1.508;0.00701904
1.509;0.00793457
1.51;0.00854492
1.511;0.00946045
1.512;0.0100708
1.513;0.0106812
1.514;0.0109863
1.515;0.0115967
1.516;0.0119019
1.517;0.0125122
1.518;0.0134277
1.519;0.0143433
1.52;0.0149536
1.521;0.015564
1.522;0.0158691
1.523;0.0161743
1.524;0.0170898
1.525;0.0180054
1.526;0.0189209
1.527;0.0201416
1.528;0.0216675
1.529;0.0228882
1.53;0.0241089
1.531;0.0256348
1.532;0.0268555
1.533;0.0283813
1.534;0.0296021
1.535;0.0305176
1.536;0.0317383
1.537;0.032959
1.538;0.0341797
1.539;0.0354004
1.54;0.0369263
1.541;0.0384521
1.542;0.0393677
1.543;0.0402832
1.544;0.0415039
1.545;0.043335
1.546;0.0457764
1.547;0.0485229
1.548;0.0512695
1.549;0.0540161
1.55;0.0564575
1.551;0.0588989
1.552;0.06073
1.553;0.0628662
1.554;0.0653076
1.555;0.067749
1.556;0.071106
1.557;0.0744629
1.558;0.0778198
1.559;0.0814819
1.56;0.0848389
1.561;0.088501
1.562;0.0921631
1.563;0.0958252
1.564;0.0994873
1.565;0.102844
1.566;0.105896
1.567;0.108948
1.568;0.112305
1.569;0.115967
1.57;0.119629
1.571;0.122986
1.572;0.126343
1.573;0.129089
1.574;0.131226
1.575;0.133362
1.576;0.135193
1.577;0.137024
1.578;0.13916
1.579;0.141602
1.58;0.144348
1.581;0.146484
1.582;0.148315
1.583;0.149536
1.584;0.150452
1.585;0.151062
1.586;0.151367
1.587;0.151367
1.588;0.151367
1.589;0.151367
1.59;0.151367
1.591;0.151367
1.592;0.151367
1.593;0.151672
1.594;0.151978
1.595;0.151978
1.596;0.151672
1.597;0.151367
1.598;0.150757
1.599;0.150452
1.6;0.149841
1.601;0.149536
1.602;0.149231
1.603;0.149536
1.604;0.149536
1.605;0.149536
1.606;0.149231
1.607;0.148926
1.608;0.148315
1.609;0.147705
1.61;0.146484
1.611;0.144958
1.612;0.142822
1.613;0.140381
1.614;0.137939
1.615;0.135193
1.616;0.131836
1.617;0.128174
1.618;0.123901
1.619;0.119019
1.62;0.113831
1.621;0.108337
1.622;0.102844
1.623;0.0967407
1.624;0.090332
1.625;0.0842285
1.626;0.0778198
1.627;0.0723267
1.628;0.0671387
1.629;0.0622559
1.63;0.057373
1.631;0.0527954
1.632;0.0482178
1.633;0.0442505
1.634;0.0405884
1.635;0.0375366
1.636;0.0344849
1.637;0.0314331
1.638;0.0283813
1.639;0.0250244
1.64;0.0216675
1.641;0.0183105
1.642;0.015564
1.643;0.0134277
1.644;0.0112915
1.645;0.00915527
1.646;0.00701904
1.647;0.00457764
1.648;0.00183105
1.649;-0.000915527
1.65;-0.00335693
1.651;-0.00579834
1.652;-0.00854492
1.653;-0.0112915
1.654;-0.0140381
1.655;-0.0167847
1.656;-0.0192261
1.657;-0.0210571
1.658;-0.0222778
1.659;-0.0234985
1.66;-0.0241089
1.661;-0.0247192
1.662;-0.0250244
1.663;-0.0256348
1.664;-0.0259399
1.665;-0.0265503
1.666;-0.0271606
1.667;-0.027771
1.668;-0.0286865
1.669;-0.0292969
1.67;-0.0299072
1.671;-0.0305176
1.672;-0.0308228
1.673;-0.0311279
1.674;-0.0314331
1.675;-0.0317383
1.676;-0.0320435
1.677;-0.0323486
1.678;-0.0326538
1.679;-0.0332642
1.68;-0.0341797
1.681;-0.0350952
1.682;-0.0357056
1.683;-0.0363159
1.684;-0.0366211
1.685;-0.0369263
1.686;-0.0378418
1.687;-0.0384521
1.688;-0.0387573
1.689;-0.0384521
1.69;-0.0378418
1.691;-0.0369263
1.692;-0.0360107
1.693;-0.03479
1.694;-0.0338745
1.695;-0.0326538
1.696;-0.0317383
1.697;-0.0308228
1.698;-0.0302124
1.699;-0.0299072
1.7;-0.0296021
1.701;-0.0292969
1.702;-0.0286865
1.703;-0.0280762
1.704;-0.0274658
1.705;-0.0268555
1.706;-0.0265503
1.707;-0.0268555
1.708;-0.0271606
1.709;-0.0274658
1.71;-0.0283813
1.711;-0.0289917
1.712;-0.0296021
1.713;-0.0302124
1.714;-0.0308228
1.715;-0.0317383
1.716;-0.032959
1.717;-0.0341797
1.718;-0.0350952
1.719;-0.0360107
1.72;-0.0366211
1.721;-0.0369263
1.722;-0.0372314
1.723;-0.0372314
1.724;-0.0366211
1.725;-0.0357056
1.726;-0.0344849
1.727;-0.0335693
1.728;-0.0323486
1.729;-0.0317383
1.73;-0.0311279
1.731;-0.0305176
1.732;-0.0302124
1.733;-0.0299072
1.734;-0.0292969
1.735;-0.0283813
1.736;-0.0274658
1.737;-0.0265503
1.738;-0.0259399
1.739;-0.0256348
1.74;-0.0250244
1.741;-0.0241089
1.742;-0.0234985
1.743;-0.0231934
1.744;-0.0228882
1.745;-0.0228882
1.746;-0.0234985
1.747;-0.0238037
1.748;-0.0247192
1.749;-0.0253296
1.75;-0.0259399
1.751;-0.0259399
1.752;-0.0256348
1.753;-0.0250244
1.754;-0.0244141
1.755;-0.0238037
1.756;-0.0231934
1.757;-0.0228882
1.758;-0.022583
1.759;-0.0222778
1.76;-0.0219727
1.761;-0.0213623
1.762;-0.020752
1.763;-0.0201416
1.764;-0.0198364
1.765;-0.0195312
1.766;-0.0192261
1.767;-0.0186157
1.768;-0.0180054
1.769;-0.0177002
1.77;-0.0177002
1.771;-0.0180054
1.772;-0.0180054
1.773;-0.017395
1.774;-0.0164795
1.775;-0.0152588
1.776;-0.0137329
1.777;-0.012207
1.778;-0.0109863
1.779;-0.010376
1.78;-0.0100708
1.781;-0.0100708
1.782;-0.0100708
1.783;-0.0100708
1.784;-0.00976562
1.785;-0.00915527
1.786;-0.00854492
1.787;-0.00793457
1.788;-0.00762939
1.789;-0.00732422
1.79;-0.00762939
1.791;-0.00793457
1.792;-0.00854492
1.793;-0.00915527
1.794;-0.0100708
1.795;-0.0109863
1.796;-0.0119019
1.797;-0.0131226
1.798;-0.0143433
1.799;-0.0149536
1.8;-0.015564
1.801;-0.0158691
1.802;-0.0158691
1.803;-0.0161743
1.804;-0.0161743
1.805;-0.0158691
1.806;-0.015564
1.807;-0.0152588
1.808;-0.0146484
1.809;-0.0140381
1.81;-0.0131226
1.811;-0.0125122
1.812;-0.0119019
1.813;-0.0115967
1.814;-0.0112915
1.815;-0.0112915
1.816;-0.0115967
1.817;-0.012207
1.818;-0.0131226
1.819;-0.0137329
1.82;-0.0137329
1.821;-0.0134277
1.822;-0.0128174
1.823;-0.012207
1.824;-0.0115967
1.825;-0.0109863
1.826;-0.0106812
1.827;-0.0106812
1.828;-0.0112915
1.829;-0.0119019
1.83;-0.0125122
1.831;-0.0125122
1.832;-0.0119019
1.833;-0.0106812
1.834;-0.00915527
1.835;-0.00793457
1.836;-0.00701904
1.837;-0.00640869
1.838;-0.00610352
1.839;-0.00610352
1.84;-0.00610352
1.841;-0.00610352
1.842;-0.00640869
1.843;-0.00671387
1.844;-0.00701904
1.845;-0.00732422
1.846;-0.00762939
1.847;-0.00823975
1.848;-0.00915527
1.849;-0.0100708
1.85;-0.0112915
1.851;-0.012207
1.852;-0.0131226
1.853;-0.0137329
1.854;-0.0140381
1.855;-0.0143433
1.856;-0.0143433
1.857;-0.0146484
1.858;-0.0146484
1.859;-0.0149536
1.86;-0.0149536
1.861;-0.0149536
1.862;-0.0149536
1.863;-0.0143433
1.864;-0.0137329
1.865;-0.0128174
1.866;-0.012207
1.867;-0.0115967
1.868;-0.0109863
1.869;-0.0109863
1.87;-0.0106812
1.871;-0.0106812
1.872;-0.0109863
1.873;-0.0112915
1.874;-0.0119019
1.875;-0.0125122
1.876;-0.0134277
1.877;-0.0140381
1.878;-0.0146484
1.879;-0.0152588
1.88;-0.0158691
1.881;-0.0161743
1.882;-0.0161743
1.883;-0.0164795
1.884;-0.0170898
1.885;-0.0180054
1.886;-0.0186157
1.887;-0.0192261
1.888;-0.0192261
1.889;-0.0186157
1.89;-0.0180054
1.891;-0.017395
1.892;-0.0164795
1.893;-0.0158691
1.894;-0.0149536
1.895;-0.0143433
1.896;-0.0140381
1.897;-0.0137329
1.898;-0.0131226
1.899;-0.0125122
1.9;-0.0119019
1.901;-0.0112915
1.902;-0.0112915
1.903;-0.0112915
1.904;-0.0115967
1.905;-0.012207
1.906;-0.0125122
1.907;-0.0131226
1.908;-0.0134277
1.909;-0.0140381
1.91;-0.0149536
1.911;-0.015564
1.912;-0.0158691
1.913;-0.0161743
1.914;-0.0158691
1.915;-0.015564
1.916;-0.0149536
1.917;-0.0143433
1.918;-0.0140381
1.919;-0.0140381
1.92;-0.0140381
1.921;-0.0146484
1.922;-0.015564
1.923;-0.0167847
1.924;-0.0180054
1.925;-0.0189209
1.926;-0.0195312
1.927;-0.0195312
1.928;-0.0189209
1.929;-0.0180054
1.93;-0.017395
1.931;-0.0164795
1.932;-0.0161743
1.933;-0.0158691
1.934;-0.0161743
1.935;-0.0161743
1.936;-0.0161743
1.937;-0.0164795
1.938;-0.0164795
1.939;-0.0167847
1.94;-0.0170898
1.941;-0.0170898
1.942;-0.0167847
1.943;-0.0167847
1.944;-0.0167847
1.945;-0.0164795
1.946;-0.0161743
1.947;-0.0158691
1.948;-0.015564
1.949;-0.0158691
1.95;-0.0164795
1.951;-0.017395
1.952;-0.0186157
1.953;-0.0201416
1.954;-0.0213623
1.955;-0.022583
1.956;-0.0234985
1.957;-0.0244141
1.958;-0.0250244
1.959;-0.0256348
1.96;-0.0259399
1.961;-0.0259399
1.962;-0.0256348
1.963;-0.0253296
1.964;-0.0250244
1.965;-0.0250244
1.966;-0.0250244
1.967;-0.0247192
1.968;-0.0247192
1.969;-0.0244141
1.97;-0.0238037
1.971;-0.0231934
1.972;-0.0222778
1.973;-0.0213623
1.974;-0.0204468
1.975;-0.0195312
1.976;-0.0186157
1.977;-0.0177002
1.978;-0.0170898
1.979;-0.0167847
1.98;-0.0161743
1.981;-0.0158691
1.982;-0.015564
1.983;-0.0152588
1.984;-0.0152588
1.985;-0.0152588
1.986;-0.0152588
1.987;-0.0152588
1.988;-0.015564
1.989;-0.015564
1.99;-0.0161743
1.991;-0.0164795
1.992;-0.017395
1.993;-0.0183105
1.994;-0.0192261
1.995;-0.0201416
1.996;-0.0213623
1.997;-0.0222778
1.998;-0.0234985
1.999;-0.0244141
2;-0.0250244
2.001;-0.0250244
2.002;-0.0244141
2.003;-0.0238037
2.004;-0.0228882
2.005;-0.022583
2.006;-0.022583
2.007;-0.022583
2.008;-0.022583
2.009;-0.022583
2.01;-0.022583
2.011;-0.0222778
2.012;-0.0219727
2.013;-0.0219727
2.014;-0.0219727
2.015;-0.0219727
2.016;-0.0219727
2.017;-0.0213623
2.018;-0.020752
2.019;-0.0201416
2.02;-0.0195312
2.021;-0.0189209
2.022;-0.0183105
2.023;-0.0183105
2.024;-0.0186157
2.025;-0.0192261
2.026;-0.0195312
2.027;-0.0192261
2.028;-0.0186157
2.029;-0.017395
2.03;-0.0164795
2.031;-0.0158691
2.032;-0.015564
2.033;-0.0158691
2.034;-0.0161743
2.035;-0.0167847
2.036;-0.017395
2.037;-0.0180054
2.038;-0.0192261
2.039;-0.0210571
2.04;-0.0228882
2.041;-0.0244141
2.042;-0.0253296
2.043;-0.0262451
2.044;-0.0262451
2.045;-0.0256348
2.046;-0.0244141
2.047;-0.0228882
2.048;-0.0210571
2.049;-0.0198364
2.05;-0.0186157
2.051;-0.0177002
2.052;-0.0170898
2.053;-0.0164795
2.054;-0.0158691
2.055;-0.0146484
2.056;-0.0128174
2.057;-0.010376
2.058;-0.00793457
2.059;-0.00549316
2.06;-0.00335693
2.061;-0.00213623
2.062;-0.00152588
2.063;-0.00213623
2.064;-0.00366211
2.065;-0.00579834
2.066;-0.00854492
2.067;-0.0112915
2.068;-0.0140381
2.069;-0.0164795
2.07;-0.0180054
2.071;-0.0192261
2.072;-0.0201416
2.073;-0.020752
2.074;-0.0216675
2.075;-0.0222778
2.076;-0.0228882
2.077;-0.0231934
2.078;-0.0234985
2.079;-0.0234985
2.08;-0.0234985
2.081;-0.0228882
2.082;-0.0222778
2.083;-0.020752
2.084;-0.0192261
2.085;-0.0167847
2.086;-0.0143433
2.087;-0.0115967
2.088;-0.00854492
2.089;-0.00579834
2.09;-0.00305176
2.091;-0.000305176
2.092;0.00274658
2.093;0.00610352
2.094;0.00946045
2.095;0.0128174
2.096;0.0161743
2.097;0.0189209
2.098;0.0213623
2.099;0.0238037
2.1;0.0259399
2.101;0.0280762
2.102;0.0299072
2.103;0.0320435
2.104;0.0338745
2.105;0.0354004
2.106;0.0369263
2.107;0.0378418
2.108;0.0384521
2.109;0.0384521
2.11;0.0384521
2.111;0.0384521
2.112;0.038147
2.113;0.0378418
2.114;0.0378418
2.115;0.0378418
2.116;0.0384521
2.117;0.0393677
2.118;0.0408936
2.119;0.0424194
2.12;0.0436401
2.121;0.0445557
2.122;0.045166
2.123;0.0460815
2.124;0.0466919
2.125;0.0469971
2.126;0.0476074
2.127;0.0479126
2.128;0.0485229
2.129;0.0485229
2.13;0.0485229
2.131;0.0479126
2.132;0.0466919
2.133;0.045166
2.134;0.0430298
2.135;0.0405884
2.136;0.0387573
2.137;0.0369263
2.138;0.03479
2.139;0.0326538
2.14;0.0296021
2.141;0.0265503
2.142;0.0231934
2.143;0.0198364
2.144;0.0167847
2.145;0.0143433
2.146;0.0128174
2.147;0.0112915
2.148;0.00976562
2.149;0.00854492
2.15;0.00671387
2.151;0.00457764
2.152;0.00244141
2.153;0.000305176
2.154;-0.00213623
2.155;-0.00457764
2.156;-0.00732422
2.157;-0.0100708
2.158;-0.0131226
2.159;-0.0161743
2.16;-0.0189209
2.161;-0.0210571
2.162;-0.0228882
2.163;-0.0244141
2.164;-0.0262451
2.165;-0.0283813
2.166;-0.0308228
2.167;-0.0335693
2.168;-0.0360107
2.169;-0.0387573
2.17;-0.0408936
2.171;-0.0427246
2.172;-0.0439453
2.173;-0.0442505
2.174;-0.0436401
2.175;-0.0424194
2.176;-0.0408936
2.177;-0.0393677
2.178;-0.0378418
2.179;-0.0366211
2.18;-0.0357056
2.181;-0.03479
2.182;-0.0335693
2.183;-0.0323486
2.184;-0.0308228
2.185;-0.0292969
2.186;-0.027771
2.187;-0.0265503
2.188;-0.0253296
2.189;-0.0247192
2.19;-0.0244141
2.191;-0.0241089
2.192;-0.0241089
2.193;-0.0241089
2.194;-0.0247192
2.195;-0.0253296
2.196;-0.0262451
2.197;-0.0274658
2.198;-0.0286865
2.199;-0.0299072
2.2;-0.0311279
2.201;-0.0326538
2.202;-0.0335693
2.203;-0.03479
2.204;-0.0354004
2.205;-0.0357056
2.206;-0.0354004
2.207;-0.03479
2.208;-0.0335693
2.209;-0.0320435
2.21;-0.0302124
2.211;-0.0283813
2.212;-0.0262451
2.213;-0.0244141
2.214;-0.022583
2.215;-0.020752
2.216;-0.0192261
2.217;-0.0177002
2.218;-0.0167847
2.219;-0.015564
2.22;-0.0146484
2.221;-0.0140381
2.222;-0.0137329
2.223;-0.0137329
2.224;-0.0137329
2.225;-0.0143433
2.226;-0.015564
2.227;-0.0170898
2.228;-0.0186157
2.229;-0.0201416
2.23;-0.0213623
2.231;-0.022583
2.232;-0.0238037
2.233;-0.0250244
2.234;-0.0262451
2.235;-0.0265503
2.236;-0.0259399
2.237;-0.0238037
2.238;-0.0204468
2.239;-0.015564
2.24;-0.00915527
2.241;-0.00152588
2.242;0.00701904
2.243;0.0167847
2.244;0.027771
2.245;0.0402832
2.246;0.0543213
2.247;0.0701904
2.248;0.0878906
2.249;0.107117
2.25;0.127563
2.251;0.149536
2.252;0.171814
2.253;0.195618
2.254;0.220337
2.255;0.246887
2.256;0.275574
2.257;0.306702
2.258;0.340271
2.259;0.376282
2.26;0.414124
2.261;0.453186
2.262;0.492554
2.263;0.531311
2.264;0.568237
2.265;0.601807
2.266;0.629883
2.267;0.65155
2.268;0.665588
2.269;0.671997
2.27;0.670471
2.271;0.661621
2.272;0.645447
2.273;0.622253
2.274;0.591736
2.275;0.555115
2.276;0.51239
2.277;0.463867
2.278;0.410461
2.279;0.352478
2.28;0.290833
2.281;0.22644
2.282;0.160828
2.283;0.09552
2.284;0.0326538
2.285;-0.0259399
2.286;-0.0787354
2.287;-0.124817
2.288;-0.163269
2.289;-0.194092
2.29;-0.21759
2.291;-0.233765
2.292;-0.243225
2.293;-0.246582
2.294;-0.244446
2.295;-0.237427
2.296;-0.22583
2.297;-0.210876
2.298;-0.193481
2.299;-0.175171
2.3;-0.15625
2.301;-0.137939
2.302;-0.12085
2.303;-0.105286
2.304;-0.0912476
2.305;-0.0793457
2.306;-0.0695801
2.307;-0.0613403
2.308;-0.0549316
2.309;-0.0500488
2.31;-0.0460815
2.311;-0.043335
2.312;-0.0415039
2.313;-0.0405884
2.314;-0.0405884
2.315;-0.0411987
2.316;-0.0421143
2.317;-0.043335
2.318;-0.045166
2.319;-0.0469971
2.32;-0.0485229
2.321;-0.050354
2.322;-0.0518799
2.323;-0.0531006
2.324;-0.0534058
2.325;-0.0534058
2.326;-0.0527954
2.327;-0.0518799
2.328;-0.050354
2.329;-0.0491333
2.33;-0.0476074
2.331;-0.0463867
2.332;-0.0457764
2.333;-0.0448608
2.334;-0.0439453
2.335;-0.0427246
2.336;-0.0415039
2.337;-0.0405884
2.338;-0.0396729
2.339;-0.0387573
2.34;-0.0378418
2.341;-0.0366211
2.342;-0.0350952
2.343;-0.0335693
2.344;-0.0320435
2.345;-0.0311279
2.346;-0.0302124
2.347;-0.0299072
2.348;-0.0296021
2.349;-0.0292969
2.35;-0.0289917
2.351;-0.0283813
2.352;-0.0274658
2.353;-0.0268555
2.354;-0.0262451
2.355;-0.0256348
2.356;-0.0256348
2.357;-0.0253296
2.358;-0.0256348
2.359;-0.0259399
2.36;-0.0262451
2.361;-0.0271606
2.362;-0.0283813
2.363;-0.0299072
2.364;-0.0314331
2.365;-0.0332642
2.366;-0.0354004
2.367;-0.0375366
2.368;-0.0393677
2.369;-0.0405884
2.37;-0.0415039
2.371;-0.0418091
2.372;-0.0415039
2.373;-0.0415039
2.374;-0.0411987
2.375;-0.0405884
2.376;-0.0396729
2.377;-0.0384521
2.378;-0.0366211
2.379;-0.0341797
2.38;-0.0314331
2.381;-0.0286865
2.382;-0.0256348
2.383;-0.0231934
2.384;-0.0204468
2.385;-0.0177002
2.386;-0.0152588
2.387;-0.0128174
2.388;-0.0106812
2.389;-0.00915527
2.39;-0.00762939
2.391;-0.00640869
2.392;-0.00579834
2.393;-0.00549316
2.394;-0.00579834
2.395;-0.00640869
2.396;-0.00732422
2.397;-0.00854492
2.398;-0.00976562
2.399;-0.0112915
2.4;-0.0128174
2.401;-0.0140381
2.402;-0.0152588
2.403;-0.0161743
2.404;-0.0167847
2.405;-0.0170898
2.406;-0.0167847
2.407;-0.0158691
2.408;-0.0143433
2.409;-0.0125122
2.41;-0.0106812
2.411;-0.00854492
2.412;-0.00671387
2.413;-0.00396729
2.414;-0.000915527
2.415;0.00213623
2.416;0.00518799
2.417;0.00793457
2.418;0.0100708
2.419;0.0119019
2.42;0.0134277
2.421;0.0152588
2.422;0.0170898
2.423;0.0195312
2.424;0.0219727
2.425;0.0241089
2.426;0.0259399
2.427;0.0271606
2.428;0.027771
2.429;0.0280762
2.43;0.0280762
2.431;0.0286865
2.432;0.0299072
2.433;0.0317383
2.434;0.0335693
2.435;0.0354004
2.436;0.0369263
2.437;0.0390625
2.438;0.0408936
2.439;0.043335
2.44;0.0457764
2.441;0.0485229
2.442;0.0509644
2.443;0.0531006
2.444;0.055542
2.445;0.0582886
2.446;0.0616455
2.447;0.0650024
2.448;0.0686646
2.449;0.0720215
2.45;0.0750732
2.451;0.0778198
2.452;0.0802612
2.453;0.0827026
2.454;0.0854492
2.455;0.0878906
2.456;0.0909424
2.457;0.093689
2.458;0.0967407
2.459;0.0997925
2.46;0.102539
2.461;0.10498
2.462;0.107117
2.463;0.109253
2.464;0.111084
2.465;0.11261
2.466;0.114441
2.467;0.115967
2.468;0.118103
2.469;0.119934
2.47;0.12207
2.471;0.123901
2.472;0.125732
2.473;0.127258
2.474;0.128784
2.475;0.13031
2.476;0.131836
2.477;0.133362
2.478;0.134583
2.479;0.136108
2.48;0.137634
2.481;0.139465
2.482;0.141602
2.483;0.144348
2.484;0.14679
2.485;0.149231
2.486;0.151367
2.487;0.153198
2.488;0.154724
2.489;0.15564
2.49;0.156555
2.491;0.157166
2.492;0.157166
2.493;0.157166
2.494;0.157166
2.495;0.15686
2.496;0.15686
2.497;0.15686
2.498;0.15625
2.499;0.155334
2.5;0.154114
2.501;0.152588
2.502;0.151062
2.503;0.149536
2.504;0.148621
2.505;0.1474
2.506;0.145874
2.507;0.144043
2.508;0.141907
2.509;0.139771
2.51;0.137634
2.511;0.135193
2.512;0.132446
2.513;0.129395
2.514;0.126343
2.515;0.122681
2.516;0.119019
2.517;0.114746
2.518;0.110474
2.519;0.106201
2.52;0.102234
2.521;0.0979614
2.522;0.0933838
2.523;0.088501
2.524;0.083313
2.525;0.078125
2.526;0.0726318
2.527;0.0668335
2.528;0.0610352
2.529;0.0549316
2.53;0.0494385
2.531;0.0442505
2.532;0.0402832
2.533;0.0369263
2.534;0.0341797
2.535;0.0308228
2.536;0.0274658
2.537;0.0241089
2.538;0.0210571
2.539;0.0189209
2.54;0.017395
2.541;0.0152588
2.542;0.0134277
2.543;0.0112915
2.544;0.0088501
2.545;0.00671387
2.546;0.00427246
2.547;0.00213623
2.548;0
2.549;-0.00213623
2.55;-0.00427246
2.551;-0.00640869
2.552;-0.0088501
2.553;-0.0112915
2.554;-0.0137329
2.555;-0.0164795
2.556;-0.0189209
2.557;-0.0216675
2.558;-0.0241089
2.559;-0.0265503
2.56;-0.0283813
2.561;-0.0302124
2.562;-0.0320435
2.563;-0.0338745
2.564;-0.0357056
2.565;-0.0375366
2.566;-0.0390625
2.567;-0.039978
2.568;-0.0405884
2.569;-0.0408936
2.57;-0.0408936
2.571;-0.0408936
2.572;-0.0411987
2.573;-0.0411987
2.574;-0.0415039
2.575;-0.0421143
2.576;-0.0424194
2.577;-0.0421143
2.578;-0.0421143
2.579;-0.0418091
2.58;-0.0415039
2.581;-0.0408936
2.582;-0.039978
2.583;-0.0387573
2.584;-0.0372314
2.585;-0.0357056
2.586;-0.0338745
2.587;-0.0326538
2.588;-0.0314331
2.589;-0.0302124
2.59;-0.0286865
2.591;-0.0274658
2.592;-0.0262451
2.593;-0.0253296
2.594;-0.0244141
2.595;-0.0238037
2.596;-0.0234985
2.597;-0.0234985
2.598;-0.0234985
2.599;-0.0238037
2.6;-0.0238037
2.601;-0.0241089
2.602;-0.0244141
2.603;-0.0253296
2.604;-0.0265503
2.605;-0.027771
2.606;-0.0286865
2.607;-0.0296021
2.608;-0.0305176
2.609;-0.0314331
2.61;-0.0320435
2.611;-0.0323486
2.612;-0.0320435
2.613;-0.0314331
2.614;-0.0305176
2.615;-0.0296021
2.616;-0.0289917
2.617;-0.0286865
2.618;-0.0286865
2.619;-0.0286865
2.62;-0.0283813
2.621;-0.0274658
2.622;-0.0259399
2.623;-0.0241089
2.624;-0.0222778
2.625;-0.0210571
2.626;-0.0204468
2.627;-0.0201416
2.628;-0.0198364
2.629;-0.0192261
2.63;-0.0180054
2.631;-0.0167847
2.632;-0.015564
2.633;-0.0143433
2.634;-0.0140381
2.635;-0.0137329
2.636;-0.0140381
2.637;-0.0140381
2.638;-0.0137329
2.639;-0.0125122
2.64;-0.0109863
2.641;-0.00915527
2.642;-0.00793457
2.643;-0.00671387
2.644;-0.00610352
2.645;-0.00579834
2.646;-0.00610352
2.647;-0.00671387
2.648;-0.00762939
2.649;-0.00854492
2.65;-0.00946045
2.651;-0.0106812
2.652;-0.0112915
2.653;-0.012207
2.654;-0.0128174
2.655;-0.0131226
2.656;-0.0131226
2.657;-0.0131226
2.658;-0.0134277
2.659;-0.0137329
2.66;-0.0140381
2.661;-0.0146484
2.662;-0.0146484
2.663;-0.0143433
2.664;-0.0140381
2.665;-0.0134277
2.666;-0.0128174
2.667;-0.012207
2.668;-0.0109863
2.669;-0.00976562
2.67;-0.00823975
2.671;-0.00640869
2.672;-0.00488281
2.673;-0.00366211
2.674;-0.00274658
2.675;-0.00213623
2.676;-0.00152588
2.677;-0.000915527
2.678;-0.000305176
2.679;0.000610352
2.68;0.00152588
2.681;0.00183105
2.682;0.00213623
2.683;0.00213623
2.684;0.00244141
2.685;0.00305176
2.686;0.00335693
2.687;0.00396729
2.688;0.00457764
2.689;0.00518799
2.69;0.00579834
2.691;0.00579834
2.692;0.00579834
2.693;0.00579834
2.694;0.00610352
2.695;0.00640869
2.696;0.00701904
2.697;0.00732422
2.698;0.00762939
2.699;0.00762939
2.7;0.00762939
2.701;0.00732422
2.702;0.00640869
2.703;0.00549316
2.704;0.00457764
2.705;0.00366211
2.706;0.00305176
2.707;0.00335693
2.708;0.00396729
2.709;0.00518799
2.71;0.00610352
2.711;0.00732422
2.712;0.00854492
2.713;0.00946045
2.714;0.0100708
2.715;0.010376
2.716;0.0109863
2.717;0.0119019
2.718;0.0134277
2.719;0.0149536
2.72;0.0167847
2.721;0.0183105
2.722;0.0195312
2.723;0.0201416
2.724;0.0204468
2.725;0.0201416
2.726;0.0195312
2.727;0.0189209
2.728;0.0183105
2.729;0.0177002
2.73;0.0170898
2.731;0.0167847
2.732;0.0158691
2.733;0.0149536
2.734;0.0140381
2.735;0.0131226
2.736;0.0119019
2.737;0.0106812
2.738;0.00915527
2.739;0.00762939
2.74;0.00579834
2.741;0.00488281
2.742;0.00457764
2.743;0.00518799
2.744;0.00610352
2.745;0.00732422
2.746;0.00793457
2.747;0.00823975
2.748;0.00793457
2.749;0.00732422
2.75;0.00610352
2.751;0.00488281
2.752;0.00457764
2.753;0.00488281
2.754;0.00549316
2.755;0.00671387
2.756;0.00793457
2.757;0.00915527
2.758;0.0100708
2.759;0.0106812
2.76;0.0106812
2.761;0.010376
2.762;0.00946045
2.763;0.00823975
2.764;0.00701904
2.765;0.00640869
2.766;0.00640869
2.767;0.00671387
2.768;0.00701904
2.769;0.00701904
2.77;0.00701904
2.771;0.00671387
2.772;0.00610352
2.773;0.00549316
2.774;0.00518799
2.775;0.00457764
2.776;0.00457764
2.777;0.00457764
2.778;0.00457764
2.779;0.00457764
2.78;0.00457764
2.781;0.00457764
2.782;0.00518799
2.783;0.00579834
2.784;0.00671387
2.785;0.00793457
2.786;0.0088501
2.787;0.0100708
2.788;0.0109863
2.789;0.0115967
2.79;0.0119019
2.791;0.0119019
2.792;0.0115967
2.793;0.0109863
2.794;0.0100708
2.795;0.00946045
2.796;0.0088501
2.797;0.00854492
2.798;0.00823975
2.799;0.00823975
2.8;0.00793457
2.801;0.00793457
2.802;0.00732422
2.803;0.00671387
2.804;0.00579834
2.805;0.00488281
2.806;0.00396729
2.807;0.00305176
2.808;0.00244141
2.809;0.00244141
2.81;0.00244141
2.811;0.00305176
2.812;0.00366211
2.813;0.00427246
2.814;0.00518799
2.815;0.00610352
2.816;0.00732422
2.817;0.0088501
2.818;0.010376
2.819;0.0112915
2.82;0.012207
2.821;0.0128174
2.822;0.0134277
2.823;0.0140381
2.824;0.0149536
2.825;0.0158691
2.826;0.0170898
2.827;0.0177002
2.828;0.0183105
2.829;0.0186157
2.83;0.0186157
2.831;0.0183105
2.832;0.0177002
2.833;0.017395
2.834;0.0170898
2.835;0.0167847
2.836;0.0164795
2.837;0.0158691
2.838;0.0152588
2.839;0.0140381
2.84;0.0128174
2.841;0.0119019
2.842;0.0115967
2.843;0.0115967
2.844;0.0112915
2.845;0.0106812
2.846;0.00976562
2.847;0.00854492
2.848;0.00793457
2.849;0.00762939
2.85;0.00762939
2.851;0.00762939
2.852;0.00762939
2.853;0.00762939
2.854;0.00762939
2.855;0.00762939
2.856;0.00762939
2.857;0.00793457
2.858;0.00793457
2.859;0.00823975
2.86;0.00854492
2.861;0.0088501
2.862;0.00915527
2.863;0.00915527
2.864;0.0088501
2.865;0.00854492
2.866;0.00823975
2.867;0.00823975
2.868;0.00823975
2.869;0.00793457
2.87;0.00793457
2.871;0.00823975
2.872;0.00823975
2.873;0.00762939
2.874;0.00701904
2.875;0.00640869
2.876;0.00579834
2.877;0.00518799
2.878;0.00427246
2.879;0.00366211
2.88;0.00305176
2.881;0.00274658
2.882;0.00274658
2.883;0.00305176
2.884;0.00366211
2.885;0.00488281
2.886;0.00610352
2.887;0.00701904
2.888;0.00823975
2.889;0.00915527
2.89;0.0100708
2.891;0.0109863
2.892;0.0115967
2.893;0.012207
2.894;0.0128174
2.895;0.0131226
2.896;0.0140381
2.897;0.0152588
2.898;0.0164795
2.899;0.0180054
2.9;0.0189209
2.901;0.0195312
2.902;0.0198364
2.903;0.0195312
2.904;0.0189209
2.905;0.0183105
2.906;0.0180054
2.907;0.0180054
2.908;0.0183105
2.909;0.0186157
2.91;0.0189209
2.911;0.0192261
2.912;0.0192261
2.913;0.0192261
2.914;0.0192261
2.915;0.0189209
2.916;0.0189209
2.917;0.0192261
2.918;0.0201416
2.919;0.0213623
2.92;0.022583
2.921;0.0238037
2.922;0.0253296
2.923;0.0262451
2.924;0.0268555
2.925;0.0274658
2.926;0.0280762
2.927;0.0286865
2.928;0.0296021
2.929;0.0305176
2.93;0.0314331
2.931;0.0323486
2.932;0.0332642
2.933;0.0338745
2.934;0.0338745
2.935;0.0335693
2.936;0.032959
2.937;0.0323486
2.938;0.0314331
2.939;0.0299072
2.94;0.0286865
2.941;0.0268555
2.942;0.0253296
2.943;0.0241089
2.944;0.0234985
2.945;0.0234985
2.946;0.0241089
2.947;0.0247192
2.948;0.0247192
2.949;0.0244141
2.95;0.0238037
2.951;0.0228882
2.952;0.022583
2.953;0.0222778
2.954;0.022583
2.955;0.0228882
2.956;0.0228882
2.957;0.0231934
2.958;0.0231934
2.959;0.0234985
2.96;0.0231934
2.961;0.0228882
2.962;0.022583
2.963;0.0222778
2.964;0.0219727
2.965;0.0219727
2.966;0.0219727
2.967;0.0219727
2.968;0.0222778
2.969;0.0222778
2.97;0.0222778
2.971;0.022583
2.972;0.0234985
2.973;0.0244141
2.974;0.0259399
2.975;0.0271606
2.976;0.0280762
2.977;0.0289917
2.978;0.0296021
2.979;0.0305176
2.98;0.0308228
2.981;0.0311279
2.982;0.0308228
2.983;0.0302124
2.984;0.0289917
2.985;0.0280762
2.986;0.0271606
2.987;0.0265503
2.988;0.0256348
2.989;0.0250244
2.99;0.0241089
2.991;0.0231934
2.992;0.0228882
2.993;0.022583
2.994;0.022583
2.995;0.022583
2.996;0.0228882
2.997;0.0231934
2.998;0.0238037
2.999;0.0241089
3;0.0244141
3.001;0.0250244
3.002;0.0253296
3.003;0.0259399
3.004;0.0265503
3.005;0.0271606
3.006;0.0271606
3.007;0.0271606
3.008;0.0268555
3.009;0.0268555
3.01;0.0262451
3.011;0.0256348
3.012;0.0247192
3.013;0.0234985
3.014;0.022583
3.015;0.0216675
3.016;0.0210571
3.017;0.020752
3.018;0.0204468
3.019;0.0204468
3.02;0.0204468
3.021;0.0210571
3.022;0.0219727
3.023;0.0234985
3.024;0.0247192
3.025;0.0259399
3.026;0.0268555
3.027;0.0274658
3.028;0.027771
3.029;0.027771
3.03;0.0274658
3.031;0.0271606
3.032;0.0265503
3.033;0.0262451
3.034;0.0262451
3.035;0.0262451
3.036;0.0259399
3.037;0.0250244
3.038;0.0238037
3.039;0.0222778
3.04;0.020752
3.041;0.0192261
3.042;0.0180054
3.043;0.0164795
3.044;0.0149536
3.045;0.0137329
3.046;0.0131226
3.047;0.0134277
3.048;0.0149536
3.049;0.0167847
3.05;0.0183105
3.051;0.0198364
3.052;0.020752
3.053;0.0219727
3.054;0.0231934
3.055;0.0247192
3.056;0.0262451
3.057;0.0271606
3.058;0.0280762
3.059;0.0286865
3.06;0.0292969
3.061;0.0299072
3.062;0.0302124
3.063;0.0305176
3.064;0.0308228
3.065;0.0311279
3.066;0.0311279
3.067;0.0311279
3.068;0.0308228
3.069;0.0305176
3.07;0.0302124
3.071;0.0296021
3.072;0.0292969
3.073;0.0289917
3.074;0.0292969
3.075;0.0302124
3.076;0.0317383
3.077;0.0335693
3.078;0.0354004
3.079;0.0375366
3.08;0.0402832
3.081;0.043335
3.082;0.0466919
3.083;0.050354
3.084;0.0543213
3.085;0.0579834
3.086;0.0616455
3.087;0.0646973
3.088;0.0671387
3.089;0.0689697
3.09;0.0704956
3.091;0.071106
3.092;0.0717163
3.093;0.0717163
3.094;0.0717163
3.095;0.0714111
3.096;0.071106
3.097;0.0714111
3.098;0.0717163
3.099;0.0723267
3.1;0.0726318
3.101;0.0732422
3.102;0.0735474
3.103;0.0738525
3.104;0.0741577
3.105;0.0744629
3.106;0.0753784
3.107;0.0762939
3.108;0.0778198
3.109;0.0796509
3.11;0.0820923
3.111;0.0845337
3.112;0.0872803
3.113;0.0897217
3.114;0.0918579
3.115;0.0933838
3.116;0.0942993
3.117;0.0949097
3.118;0.0949097
3.119;0.0946045
3.12;0.0939941
3.121;0.093689
3.122;0.0933838
3.123;0.0924683
3.124;0.0915527
3.125;0.0897217
3.126;0.0872803
3.127;0.0848389
3.128;0.0827026
3.129;0.0808716
3.13;0.0790405
3.131;0.0772095
3.132;0.0750732
3.133;0.072937
3.134;0.0704956
3.135;0.067749
3.136;0.0650024
3.137;0.0619507
3.138;0.0588989
3.139;0.0558472
3.14;0.0534058
3.141;0.0512695
3.142;0.0488281
3.143;0.0460815
3.144;0.0427246
3.145;0.0387573
3.146;0.0344849
3.147;0.0305176
3.148;0.0268555
3.149;0.0234985
3.15;0.020752
3.151;0.0186157
3.152;0.0167847
3.153;0.015564
3.154;0.0146484
3.155;0.0137329
3.156;0.0125122
3.157;0.0112915
3.158;0.010376
3.159;0.00946045
3.16;0.00915527
3.161;0.0088501
3.162;0.00854492
3.163;0.00823975
3.164;0.00823975
3.165;0.00823975
3.166;0.0088501
3.167;0.00915527
3.168;0.00946045
3.169;0.0088501
3.17;0.00823975
3.171;0.00701904
3.172;0.00579834
3.173;0.00457764
3.174;0.00335693
3.175;0.00244141
3.176;0.00183105
3.177;0.0012207
3.178;0.000915527
3.179;0.000915527
3.18;0.000610352
3.181;0.000305176
3.182;-0.000305176
3.183;-0.0012207
3.184;-0.00244141
3.185;-0.00366211
3.186;-0.00457764
3.187;-0.00518799
3.188;-0.00518799
3.189;-0.00457764
3.19;-0.00396729
3.191;-0.00274658
3.192;-0.00152588
3.193;-0.000305176
3.194;0.000915527
3.195;0.00183105
3.196;0.00274658
3.197;0.00335693
3.198;0.00335693
3.199;0.00335693
3.2;0.00335693
3.201;0.00335693
3.202;0.00335693
3.203;0.00396729
3.204;0.00457764
3.205;0.00549316
3.206;0.00671387
3.207;0.00732422
3.208;0.00762939
3.209;0.00762939
3.21;0.00701904
3.211;0.00610352
3.212;0.00488281
3.213;0.00366211
3.214;0.00244141
3.215;0.00152588
3.216;0.000305176
3.217;-0.000610352
3.218;-0.00183105
3.219;-0.00274658
3.22;-0.00366211
3.221;-0.00457764
3.222;-0.00518799
3.223;-0.00579834
3.224;-0.00640869
3.225;-0.00701904
3.226;-0.00732422
3.227;-0.00701904
3.228;-0.00610352
3.229;-0.00457764
3.23;-0.00213623
3.231;0.0012207
3.232;0.00610352
3.233;0.012207
3.234;0.0198364
3.235;0.0289917
3.236;0.0393677
3.237;0.0512695
3.238;0.0643921
3.239;0.0790405
3.24;0.0949097
3.241;0.111389
3.242;0.129089
3.243;0.1474
3.244;0.167236
3.245;0.188599
3.246;0.211792
3.247;0.236816
3.248;0.263367
3.249;0.291748
3.25;0.321655
3.251;0.353088
3.252;0.386658
3.253;0.422363
3.254;0.460205
3.255;0.499573
3.256;0.53894
3.257;0.577087
3.258;0.612183
3.259;0.64209
3.26;0.665894
3.261;0.682068
3.262;0.690613
3.263;0.691223
3.264;0.684204
3.265;0.670166
3.266;0.649109
3.267;0.621338
3.268;0.587158
3.269;0.546875
3.27;0.500488
3.271;0.449219
3.272;0.392761
3.273;0.332336
3.274;0.269165
3.275;0.204163
3.276;0.139771
3.277;0.0765991
3.278;0.0167847
3.279;-0.0387573
3.28;-0.0881958
3.281;-0.13092
3.282;-0.166016
3.283;-0.192566
3.284;-0.211182
3.285;-0.222168
3.286;-0.22644
3.287;-0.224915
3.288;-0.218506
3.289;-0.20813
3.29;-0.194702
3.291;-0.179443
3.292;-0.162659
3.293;-0.145264
3.294;-0.128174
3.295;-0.111694
3.296;-0.0967407
3.297;-0.083313
3.298;-0.0714111
3.299;-0.06073
3.3;-0.0512695
3.301;-0.0430298
3.302;-0.0363159
3.303;-0.0308228
3.304;-0.0271606
3.305;-0.0247192
3.306;-0.0234985
3.307;-0.0231934
3.308;-0.0234985
3.309;-0.0247192
3.31;-0.0262451
3.311;-0.0280762
3.312;-0.0292969
3.313;-0.0299072
3.314;-0.0299072
3.315;-0.0292969
3.316;-0.0283813
3.317;-0.0274658
3.318;-0.0262451
3.319;-0.0253296
3.32;-0.0247192
3.321;-0.0238037
3.322;-0.0231934
3.323;-0.022583
3.324;-0.0219727
3.325;-0.0213623
3.326;-0.0210571
3.327;-0.0210571
3.328;-0.0210571
3.329;-0.0204468
3.33;-0.0192261
3.331;-0.017395
3.332;-0.0152588
3.333;-0.0131226
3.334;-0.0112915
3.335;-0.010376
3.336;-0.010376
3.337;-0.0106812
3.338;-0.0109863
3.339;-0.0106812
3.34;-0.0100708
3.341;-0.0088501
3.342;-0.00701904
3.343;-0.00518799
3.344;-0.00335693
3.345;-0.00213623
3.346;-0.000915527
3.347;-0.000305176
3.348;0.000305176
3.349;0.000610352
3.35;0.000610352
3.351;0.000305176
3.352;0
3.353;-0.000610352
3.354;-0.0012207
3.355;-0.00213623
3.356;-0.00305176
3.357;-0.00396729
3.358;-0.00457764
3.359;-0.00518799
3.36;-0.00610352
3.361;-0.00671387
3.362;-0.00762939
3.363;-0.00854492
3.364;-0.00946045
3.365;-0.0106812
3.366;-0.0119019
3.367;-0.0128174
3.368;-0.0137329
3.369;-0.0143433
3.37;-0.0146484
3.371;-0.0143433
3.372;-0.0137329
3.373;-0.0128174
3.374;-0.0112915
3.375;-0.00976562
3.376;-0.00823975
3.377;-0.00671387
3.378;-0.00549316
3.379;-0.00396729
3.38;-0.00274658
3.381;-0.0012207
3.382;0.000305176
3.383;0.00152588
3.384;0.00305176
3.385;0.00457764
3.386;0.00640869
3.387;0.00823975
3.388;0.00976562
3.389;0.0112915
3.39;0.0125122
3.391;0.0134277
3.392;0.0140381
3.393;0.0146484
3.394;0.0149536
3.395;0.0152588
3.396;0.0158691
3.397;0.0161743
3.398;0.0164795
3.399;0.0167847
3.4;0.0170898
3.401;0.0170898
3.402;0.0170898
3.403;0.0170898
3.404;0.0167847
3.405;0.0164795
3.406;0.0161743
3.407;0.0164795
3.408;0.017395
3.409;0.0186157
3.41;0.0198364
3.411;0.0210571
3.412;0.0216675
3.413;0.0216675
3.414;0.0213623
3.415;0.0210571
3.416;0.0210571
3.417;0.0216675
3.418;0.0228882
3.419;0.0247192
3.42;0.0268555
3.421;0.0296021
3.422;0.0326538
3.423;0.0357056
3.424;0.0387573
3.425;0.0418091
3.426;0.0445557
3.427;0.0473022
3.428;0.0500488
3.429;0.0531006
3.43;0.0558472
3.431;0.0582886
3.432;0.0604248
3.433;0.062561
3.434;0.0653076
3.435;0.0680542
3.436;0.071106
3.437;0.0741577
3.438;0.0772095
3.439;0.0805664
3.44;0.0845337
3.441;0.0878906
3.442;0.0909424
3.443;0.093689
3.444;0.0961304
3.445;0.0982666
3.446;0.100403
3.447;0.102234
3.448;0.104065
3.449;0.106201
3.45;0.108643
3.451;0.111084
3.452;0.114136
3.453;0.116882
3.454;0.119324
3.455;0.121155
3.456;0.122681
3.457;0.123596
3.458;0.124207
3.459;0.124817
3.46;0.125122
3.461;0.125427
3.462;0.125427
3.463;0.125732
3.464;0.126343
3.465;0.126953
3.466;0.127563
3.467;0.128479
3.468;0.13031
3.469;0.132446
3.47;0.134583
3.471;0.137024
3.472;0.139465
3.473;0.141602
3.474;0.143738
3.475;0.145874
3.476;0.1474
3.477;0.148926
3.478;0.150452
3.479;0.151672
3.48;0.153503
3.481;0.155334
3.482;0.157471
3.483;0.159607
3.484;0.161438
3.485;0.162964
3.486;0.164185
3.487;0.165405
3.488;0.16571
3.489;0.166016
3.49;0.16571
3.491;0.1651
3.492;0.164185
3.493;0.162964
3.494;0.161743
3.495;0.160522
3.496;0.159302
3.497;0.157776
3.498;0.15625
3.499;0.154419
3.5;0.151978
3.501;0.148621
3.502;0.144958
3.503;0.140991
3.504;0.137024
3.505;0.133057
3.506;0.128784
3.507;0.124817
3.508;0.120544
3.509;0.116272
3.51;0.111694
3.511;0.107117
3.512;0.102844
3.513;0.0985718
3.514;0.0939941
3.515;0.0894165
3.516;0.0848389
3.517;0.0799561
3.518;0.0756836
3.519;0.0720215
3.52;0.0686646
3.521;0.0656128
3.522;0.0622559
3.523;0.0588989
3.524;0.055542
3.525;0.0521851
3.526;0.0494385
3.527;0.0469971
3.528;0.0445557
3.529;0.0418091
3.53;0.0387573
3.531;0.0354004
3.532;0.0314331
3.533;0.0271606
3.534;0.0228882
3.535;0.0186157
3.536;0.0146484
3.537;0.0112915
3.538;0.00854492
3.539;0.00579834
3.54;0.00335693
3.541;0.000305176
3.542;-0.00305176
3.543;-0.00732422
3.544;-0.0119019
3.545;-0.0161743
3.546;-0.0195312
3.547;-0.0210571
3.548;-0.0219727
3.549;-0.0222778
3.55;-0.0228882
3.551;-0.0238037
3.552;-0.0250244
3.553;-0.0265503
3.554;-0.0280762
3.555;-0.0296021
3.556;-0.0308228
3.557;-0.0320435
3.558;-0.0332642
3.559;-0.0338745
3.56;-0.0341797
3.561;-0.03479
3.562;-0.0350952
3.563;-0.0363159
3.564;-0.0378418
3.565;-0.0396729
3.566;-0.0418091
3.567;-0.0442505
3.568;-0.0463867
3.569;-0.0485229
3.57;-0.050354
3.571;-0.0515747
3.572;-0.0521851
3.573;-0.0524902
3.574;-0.0524902
3.575;-0.0521851
3.576;-0.0515747
3.577;-0.0512695
3.578;-0.0506592
3.579;-0.0500488
3.58;-0.0494385
3.581;-0.0485229
3.582;-0.0479126
3.583;-0.0469971
3.584;-0.0460815
3.585;-0.045166
3.586;-0.0436401
3.587;-0.0424194
3.588;-0.0408936
3.589;-0.0396729
3.59;-0.0387573
3.591;-0.038147
3.592;-0.0378418
3.593;-0.038147
3.594;-0.0384521
3.595;-0.0390625
3.596;-0.0396729
3.597;-0.0405884
3.598;-0.0415039
3.599;-0.0424194
3.6;-0.0430298
3.601;-0.043335
3.602;-0.043335
3.603;-0.043335
3.604;-0.0430298
3.605;-0.0430298
3.606;-0.0430298
3.607;-0.0430298
3.608;-0.0430298
3.609;-0.0430298
3.61;-0.0424194
3.611;-0.0418091
3.612;-0.0408936
3.613;-0.0396729
3.614;-0.0387573
3.615;-0.038147
3.616;-0.0375366
3.617;-0.0369263
3.618;-0.0366211
3.619;-0.0366211
3.62;-0.0363159
3.621;-0.0360107
3.622;-0.0357056
3.623;-0.0354004
3.624;-0.0354004
3.625;-0.0350952
3.626;-0.0354004
3.627;-0.0354004
3.628;-0.0357056
3.629;-0.0363159
3.63;-0.0369263
3.631;-0.0375366
3.632;-0.0378418
3.633;-0.038147
3.634;-0.0384521
3.635;-0.0384521
3.636;-0.0387573
3.637;-0.0393677
3.638;-0.0393677
3.639;-0.0390625
3.64;-0.0378418
3.641;-0.0360107
3.642;-0.0338745
3.643;-0.0320435
3.644;-0.0311279
3.645;-0.0308228
3.646;-0.0314331
3.647;-0.0323486
3.648;-0.032959
3.649;-0.0332642
3.65;-0.032959
3.651;-0.0323486
3.652;-0.0314331
3.653;-0.0302124
3.654;-0.0296021
3.655;-0.0296021
3.656;-0.0299072
3.657;-0.0308228
3.658;-0.0317383
3.659;-0.0323486
3.66;-0.032959
3.661;-0.0335693
3.662;-0.0335693
3.663;-0.0335693
3.664;-0.0335693
3.665;-0.0335693
3.666;-0.0338745
3.667;-0.0338745
3.668;-0.0332642
3.669;-0.0323486
3.67;-0.0305176
3.671;-0.0289917
3.672;-0.0271606
3.673;-0.0256348
3.674;-0.0244141
3.675;-0.0231934
3.676;-0.0222778
3.677;-0.0216675
3.678;-0.0210571
3.679;-0.020752
3.68;-0.0198364
3.681;-0.0192261
3.682;-0.0183105
3.683;-0.0177002
3.684;-0.0170898
3.685;-0.0167847
3.686;-0.0167847
3.687;-0.0170898
3.688;-0.0177002
3.689;-0.0189209
3.69;-0.0201416
3.691;-0.0216675
3.692;-0.0231934
3.693;-0.0244141
3.694;-0.0253296
3.695;-0.0253296
3.696;-0.0253296
3.697;-0.0250244
3.698;-0.0247192
3.699;-0.0250244
3.7;-0.0250244
3.701;-0.0253296
3.702;-0.0253296
3.703;-0.0250244
3.704;-0.0244141
3.705;-0.0234985
3.706;-0.022583
3.707;-0.0213623
3.708;-0.0204468
3.709;-0.0195312
3.71;-0.0189209
3.711;-0.0186157
3.712;-0.0183105
3.713;-0.0183105
3.714;-0.0183105
3.715;-0.0183105
3.716;-0.0183105
3.717;-0.0186157
3.718;-0.0189209
3.719;-0.0192261
3.72;-0.0192261
3.721;-0.0195312
3.722;-0.0195312
3.723;-0.0192261
3.724;-0.0192261
3.725;-0.0192261
3.726;-0.0195312
3.727;-0.0201416
3.728;-0.0204468
3.729;-0.020752
3.73;-0.0204468
3.731;-0.0201416
3.732;-0.0192261
3.733;-0.0186157
3.734;-0.0180054
3.735;-0.017395
3.736;-0.0164795
3.737;-0.015564
3.738;-0.0140381
3.739;-0.0128174
3.74;-0.0119019
3.741;-0.0115967
3.742;-0.0112915
3.743;-0.0109863
3.744;-0.0112915
3.745;-0.0115967
3.746;-0.0119019
3.747;-0.0125122
3.748;-0.0134277
3.749;-0.0146484
3.75;-0.0164795
3.751;-0.0183105
3.752;-0.0204468
3.753;-0.022583
3.754;-0.0241089
3.755;-0.0253296
3.756;-0.0259399
3.757;-0.0265503
3.758;-0.0271606
3.759;-0.0280762
3.76;-0.0296021
3.761;-0.0311279
3.762;-0.0323486
3.763;-0.0335693
3.764;-0.0341797
3.765;-0.0341797
3.766;-0.0335693
3.767;-0.0317383
3.768;-0.0292969
3.769;-0.0262451
3.77;-0.0231934
3.771;-0.0204468
3.772;-0.0180054
3.773;-0.0161743
3.774;-0.0146484
3.775;-0.0137329
3.776;-0.0134277
3.777;-0.0131226
3.778;-0.0131226
3.779;-0.0137329
3.78;-0.0146484
3.781;-0.015564
3.782;-0.0170898
3.783;-0.0186157
3.784;-0.0201416
3.785;-0.0213623
3.786;-0.022583
3.787;-0.0241089
3.788;-0.0256348
3.789;-0.0274658
3.79;-0.0296021
3.791;-0.0314331
3.792;-0.0335693
3.793;-0.0354004
3.794;-0.0372314
3.795;-0.0387573
3.796;-0.0402832
3.797;-0.0415039
3.798;-0.0421143
3.799;-0.0421143
3.8;-0.0418091
3.801;-0.0408936
3.802;-0.0390625
3.803;-0.0372314
3.804;-0.0357056
3.805;-0.0344849
3.806;-0.0335693
3.807;-0.032959
3.808;-0.0323486
3.809;-0.0317383
3.81;-0.0311279
3.811;-0.0299072
3.812;-0.0283813
3.813;-0.0271606
3.814;-0.0253296
3.815;-0.0238037
3.816;-0.0219727
3.817;-0.020752
3.818;-0.0198364
3.819;-0.0198364
3.82;-0.0201416
3.821;-0.020752
3.822;-0.0213623
3.823;-0.0219727
3.824;-0.0222778
3.825;-0.0228882
3.826;-0.0238037
3.827;-0.0250244
3.828;-0.0265503
3.829;-0.0283813
3.83;-0.0302124
3.831;-0.0323486
3.832;-0.0341797
3.833;-0.0357056
3.834;-0.0366211
3.835;-0.0375366
3.836;-0.0378418
3.837;-0.0378418
3.838;-0.0378418
3.839;-0.0378418
3.84;-0.0375366
3.841;-0.0375366
3.842;-0.0372314
3.843;-0.0369263
3.844;-0.0357056
3.845;-0.0344849
3.846;-0.032959
3.847;-0.0320435
3.848;-0.0314331
3.849;-0.0305176
3.85;-0.0299072
3.851;-0.0292969
3.852;-0.0283813
3.853;-0.027771
3.854;-0.0274658
3.855;-0.0271606
3.856;-0.0271606
3.857;-0.0271606
3.858;-0.0271606
3.859;-0.0271606
3.86;-0.0271606
3.861;-0.0271606
3.862;-0.0265503
3.863;-0.0262451
3.864;-0.0259399
3.865;-0.0262451
3.866;-0.0265503
3.867;-0.0268555
3.868;-0.0265503
3.869;-0.0265503
3.87;-0.0262451
3.871;-0.0262451
3.872;-0.0262451
3.873;-0.0259399
3.874;-0.0253296
3.875;-0.0244141
3.876;-0.0234985
3.877;-0.0231934
3.878;-0.0234985
3.879;-0.0238037
3.88;-0.0244141
3.881;-0.0250244
3.882;-0.0253296
3.883;-0.0256348
3.884;-0.0253296
3.885;-0.0247192
3.886;-0.0241089
3.887;-0.0241089
3.888;-0.0241089
3.889;-0.0244141
3.89;-0.0253296
3.891;-0.0262451
3.892;-0.0268555
3.893;-0.0274658
3.894;-0.027771
3.895;-0.0283813
3.896;-0.0289917
3.897;-0.0296021
3.898;-0.0302124
3.899;-0.0311279
3.9;-0.0317383
3.901;-0.0323486
3.902;-0.032959
3.903;-0.0332642
3.904;-0.0338745
3.905;-0.0341797
3.906;-0.0344849
3.907;-0.03479
3.908;-0.03479
3.909;-0.0344849
3.91;-0.0341797
3.911;-0.0338745
3.912;-0.0338745
3.913;-0.0335693
3.914;-0.032959
3.915;-0.0320435
3.916;-0.0302124
3.917;-0.0283813
3.918;-0.0268555
3.919;-0.0259399
3.92;-0.0253296
3.921;-0.0253296
3.922;-0.0253296
3.923;-0.0256348
3.924;-0.0262451
3.925;-0.0268555
3.926;-0.027771
3.927;-0.0283813
3.928;-0.0292969
3.929;-0.0302124
3.93;-0.0311279
3.931;-0.0320435
3.932;-0.032959
3.933;-0.0338745
3.934;-0.03479
3.935;-0.0360107
3.936;-0.0369263
3.937;-0.0378418
3.938;-0.0384521
3.939;-0.0387573
3.94;-0.0384521
3.941;-0.0378418
3.942;-0.0372314
3.943;-0.0363159
3.944;-0.0350952
3.945;-0.0341797
3.946;-0.0326538
3.947;-0.0311279
3.948;-0.0296021
3.949;-0.0280762
3.95;-0.0268555
3.951;-0.0256348
3.952;-0.0250244
3.953;-0.0247192
3.954;-0.0244141
3.955;-0.0244141
3.956;-0.0247192
3.957;-0.0247192
3.958;-0.0253296
3.959;-0.0262451
3.96;-0.0274658
3.961;-0.0283813
3.962;-0.0292969
3.963;-0.0302124
3.964;-0.0317383
3.965;-0.0332642
3.966;-0.03479
3.967;-0.0363159
3.968;-0.0375366
3.969;-0.0384521
3.97;-0.0390625
3.971;-0.0396729
3.972;-0.0396729
3.973;-0.039978
3.974;-0.0396729
3.975;-0.0393677
3.976;-0.0384521
3.977;-0.0372314
3.978;-0.0354004
3.979;-0.0338745
3.98;-0.0326538
3.981;-0.0317383
3.982;-0.0314331
3.983;-0.0314331
3.984;-0.0320435
3.985;-0.0320435
3.986;-0.0314331
3.987;-0.0292969
3.988;-0.0268555
3.989;-0.0247192
3.99;-0.0238037
3.991;-0.0234985
3.992;-0.0234985
3.993;-0.0234985
3.994;-0.0231934
3.995;-0.0228882
3.996;-0.022583
3.997;-0.0222778
3.998;-0.0216675
3.999;-0.0210571
4;-0.0198364
4.001;-0.0186157
4.002;-0.017395
4.003;-0.0164795
4.004;-0.0152588
4.005;-0.0143433
4.006;-0.0134277
4.007;-0.0125122
4.008;-0.0115967
4.009;-0.0106812
4.01;-0.00946045
4.011;-0.00823975
4.012;-0.00671387
4.013;-0.00488281
4.014;-0.00335693
4.015;-0.00152588
4.016;0.000610352
4.017;0.00244141
4.018;0.00457764
4.019;0.00671387
4.02;0.00854492
4.021;0.0109863
4.022;0.0131226
4.023;0.0149536
4.024;0.0164795
4.025;0.0180054
4.026;0.0192261
4.027;0.0204468
4.028;0.0216675
4.029;0.0228882
4.03;0.0244141
4.031;0.0259399
4.032;0.0274658
4.033;0.0289917
4.034;0.0302124
4.035;0.0317383
4.036;0.032959
4.037;0.0341797
4.038;0.0354004
4.039;0.0363159
4.04;0.0372314
4.041;0.038147
4.042;0.0390625
4.043;0.0405884
4.044;0.0421143
4.045;0.0436401
4.046;0.045166
4.047;0.0463867
4.048;0.0473022
4.049;0.0476074
4.05;0.0479126
4.051;0.0476074
4.052;0.0473022
4.053;0.0466919
4.054;0.0457764
4.055;0.0442505
4.056;0.0421143
4.057;0.0396729
4.058;0.0366211
4.059;0.0338745
4.06;0.0314331
4.061;0.0292969
4.062;0.0271606
4.063;0.0247192
4.064;0.0219727
4.065;0.0192261
4.066;0.015564
4.067;0.0119019
4.068;0.00823975
4.069;0.00488281
4.07;0.00183105
4.071;-0.00152588
4.072;-0.00518799
4.073;-0.00854492
4.074;-0.012207
4.075;-0.015564
4.076;-0.0192261
4.077;-0.0228882
4.078;-0.0262451
4.079;-0.0296021
4.08;-0.032959
4.081;-0.0363159
4.082;-0.0393677
4.083;-0.0424194
4.084;-0.045166
4.085;-0.0479126
4.086;-0.0506592
4.087;-0.0531006
4.088;-0.055542
4.089;-0.057373
4.09;-0.0588989
4.091;-0.0598145
4.092;-0.0601196
4.093;-0.0604248
4.094;-0.0604248
4.095;-0.0604248
4.096;-0.0601196
4.097;-0.0595093
4.098;-0.0592041
4.099;-0.0588989
4.1;-0.0588989
4.101;-0.0588989
4.102;-0.0592041
4.103;-0.0595093
4.104;-0.0598145
4.105;-0.0601196
4.106;-0.0604248
4.107;-0.0610352
4.108;-0.0616455
4.109;-0.062561
4.11;-0.0631714
4.111;-0.0634766
4.112;-0.0631714
4.113;-0.0628662
4.114;-0.062561
4.115;-0.062561
4.116;-0.0628662
4.117;-0.0631714
4.118;-0.0631714
4.119;-0.0634766
4.12;-0.0631714
4.121;-0.0628662
4.122;-0.0622559
4.123;-0.0616455
4.124;-0.0610352
4.125;-0.0601196
4.126;-0.0595093
4.127;-0.0588989
4.128;-0.0582886
4.129;-0.0576782
4.13;-0.0570679
4.131;-0.0567627
4.132;-0.0564575
4.133;-0.0564575
4.134;-0.0570679
4.135;-0.0576782
4.136;-0.0582886
4.137;-0.0592041
4.138;-0.0598145
4.139;-0.0604248
4.14;-0.0610352
4.141;-0.0610352
4.142;-0.0613403
4.143;-0.0610352
4.144;-0.06073
4.145;-0.0604248
4.146;-0.0595093
4.147;-0.0585938
4.148;-0.0579834
4.149;-0.0576782
4.15;-0.0579834
4.151;-0.0585938
4.152;-0.0595093
4.153;-0.06073
4.154;-0.0616455
4.155;-0.062561
4.156;-0.0634766
4.157;-0.0643921
4.158;-0.0650024
4.159;-0.0653076
4.16;-0.0646973
4.161;-0.0634766
4.162;-0.0613403
4.163;-0.0582886
4.164;-0.0543213
4.165;-0.0491333
4.166;-0.043335
4.167;-0.0369263
4.168;-0.0289917
4.169;-0.0198364
4.17;-0.00946045
4.171;0.00274658
4.172;0.0167847
4.173;0.0320435
4.174;0.0488281
4.175;0.0671387
4.176;0.0869751
4.177;0.108337
4.178;0.13092
4.179;0.154724
4.18;0.179749
4.181;0.206604
4.182;0.235901
4.183;0.267639
4.184;0.302124
4.185;0.33905
4.186;0.378113
4.187;0.418701
4.188;0.46051
4.189;0.502014
4.19;0.542603
4.191;0.579834
4.192;0.611877
4.193;0.637207
4.194;0.653992
4.195;0.662537
4.196;0.663147
4.197;0.656128
4.198;0.6427
4.199;0.622253
4.2;0.595093
4.201;0.561218
4.202;0.520325
4.203;0.473328
4.204;0.420227
4.205;0.362244
4.206;0.300293
4.207;0.235901
4.208;0.170288
4.209;0.105286
4.21;0.0418091
4.211;-0.0183105
4.212;-0.0732422
4.213;-0.122375
4.214;-0.164185
4.215;-0.198669
4.216;-0.22522
4.217;-0.244446
4.218;-0.256653
4.219;-0.262451
4.22;-0.263062
4.221;-0.259094
4.222;-0.25116
4.223;-0.240173
4.224;-0.227356
4.225;-0.213623
4.226;-0.199585
4.227;-0.185242
4.228;-0.171204
4.229;-0.157776
4.23;-0.145264
4.231;-0.133667
4.232;-0.123291
4.233;-0.114441
4.234;-0.106506
4.235;-0.100098
4.236;-0.0949097
4.237;-0.0909424
4.238;-0.0878906
4.239;-0.0857544
4.24;-0.0842285
4.241;-0.083313
4.242;-0.0823975
4.243;-0.0820923
4.244;-0.0814819
4.245;-0.0814819
4.246;-0.0814819
4.247;-0.0817871
4.248;-0.0823975
4.249;-0.0830078
4.25;-0.0836182
4.251;-0.0839233
4.252;-0.0839233
4.253;-0.0836182
4.254;-0.083313
4.255;-0.0823975
4.256;-0.0814819
4.257;-0.0805664
4.258;-0.0793457
4.259;-0.078125
4.26;-0.0769043
4.261;-0.0756836
4.262;-0.0744629
4.263;-0.0732422
4.264;-0.0714111
4.265;-0.0689697
4.266;-0.0665283
4.267;-0.0640869
4.268;-0.062561
4.269;-0.0613403
4.27;-0.0610352
4.271;-0.06073
4.272;-0.0610352
4.273;-0.0616455
4.274;-0.0622559
4.275;-0.0628662
4.276;-0.0634766
4.277;-0.0640869
4.278;-0.0646973
4.279;-0.0650024
4.28;-0.0653076
4.281;-0.065918
4.282;-0.0668335
4.283;-0.0680542
4.284;-0.0692749
4.285;-0.0701904
4.286;-0.071106
4.287;-0.0717163
4.288;-0.0717163
4.289;-0.0708008
4.29;-0.0695801
4.291;-0.0683594
4.292;-0.0674438
4.293;-0.0665283
4.294;-0.0653076
4.295;-0.0643921
4.296;-0.0637817
4.297;-0.0631714
4.298;-0.0628662
4.299;-0.0619507
4.3;-0.0604248
4.301;-0.0592041
4.302;-0.0579834
4.303;-0.057373
4.304;-0.0567627
4.305;-0.0567627
4.306;-0.0567627
4.307;-0.0567627
4.308;-0.0567627
4.309;-0.0567627
4.31;-0.0567627
4.311;-0.0567627
4.312;-0.0564575
4.313;-0.0561523
4.314;-0.055542
4.315;-0.0549316
4.316;-0.0543213
4.317;-0.0540161
4.318;-0.0534058
4.319;-0.0524902
4.32;-0.0515747
4.321;-0.050354
4.322;-0.0491333
4.323;-0.0479126
4.324;-0.0466919
4.325;-0.0457764
4.326;-0.0445557
4.327;-0.043335
4.328;-0.0424194
4.329;-0.0415039
4.33;-0.0405884
4.331;-0.0393677
4.332;-0.0378418
4.333;-0.0363159
4.334;-0.03479
4.335;-0.0338745
4.336;-0.032959
4.337;-0.0320435
4.338;-0.0314331
4.339;-0.0311279
4.34;-0.0305176
4.341;-0.0299072
4.342;-0.0289917
4.343;-0.027771
4.344;-0.0268555
4.345;-0.0262451
4.346;-0.0259399
4.347;-0.0256348
4.348;-0.0253296
4.349;-0.0247192
4.35;-0.0241089
4.351;-0.0234985
4.352;-0.022583
4.353;-0.0213623
4.354;-0.0204468
4.355;-0.0195312
4.356;-0.0189209
4.357;-0.0180054
4.358;-0.0167847
4.359;-0.0152588
4.36;-0.0134277
4.361;-0.0112915
4.362;-0.00946045
4.363;-0.00762939
4.364;-0.00579834
4.365;-0.00366211
4.366;-0.00152588
4.367;0.000610352
4.368;0.00305176
4.369;0.00549316
4.37;0.00793457
4.371;0.0106812
4.372;0.0131226
4.373;0.0158691
4.374;0.0180054
4.375;0.0195312
4.376;0.020752
4.377;0.0222778
4.378;0.0241089
4.379;0.0259399
4.38;0.0283813
4.381;0.0305176
4.382;0.0323486
4.383;0.0344849
4.384;0.0363159
4.385;0.038147
4.386;0.039978
4.387;0.0421143
4.388;0.0448608
4.389;0.0476074
4.39;0.050354
4.391;0.0527954
4.392;0.0546265
4.393;0.0570679
4.394;0.0598145
4.395;0.0634766
4.396;0.0674438
4.397;0.0714111
4.398;0.0753784
4.399;0.0790405
4.4;0.0823975
4.401;0.085144
4.402;0.0872803
4.403;0.0894165
4.404;0.0912476
4.405;0.0927734
4.406;0.0946045
4.407;0.0961304
4.408;0.0979614
4.409;0.0997925
4.41;0.101624
4.411;0.103149
4.412;0.104065
4.413;0.10437
4.414;0.10498
4.415;0.105286
4.416;0.105896
4.417;0.106812
4.418;0.107727
4.419;0.109558
4.42;0.111389
4.421;0.112915
4.422;0.114136
4.423;0.114441
4.424;0.114746
4.425;0.114746
4.426;0.114441
4.427;0.114136
4.428;0.113525
4.429;0.11322
4.43;0.11261
4.431;0.112305
4.432;0.111389
4.433;0.110168
4.434;0.108337
4.435;0.105896
4.436;0.102234
4.437;0.0985718
4.438;0.0946045
4.439;0.0909424
4.44;0.0875854
4.441;0.0839233
4.442;0.0805664
4.443;0.0765991
4.444;0.0723267
4.445;0.0680542
4.446;0.0631714
4.447;0.0585938
4.448;0.0543213
4.449;0.0500488
4.45;0.0460815
4.451;0.0424194
4.452;0.0387573
4.453;0.0354004
4.454;0.0323486
4.455;0.0296021
4.456;0.0262451
4.457;0.0231934
4.458;0.0198364
4.459;0.0170898
4.46;0.0140381
4.461;0.0112915
4.462;0.00854492
4.463;0.00549316
4.464;0.00183105
4.465;-0.00213623
4.466;-0.00610352
4.467;-0.0100708
4.468;-0.0137329
4.469;-0.0170898
4.47;-0.0204468
4.471;-0.0234985
4.472;-0.0265503
4.473;-0.0296021
4.474;-0.032959
4.475;-0.0363159
4.476;-0.0396729
4.477;-0.0430298
4.478;-0.0460815
4.479;-0.0488281
4.48;-0.0509644
4.481;-0.0527954
4.482;-0.0543213
4.483;-0.055542
4.484;-0.0570679
4.485;-0.0582886
4.486;-0.0592041
4.487;-0.0595093
4.488;-0.0598145
4.489;-0.0598145
4.49;-0.0601196
4.491;-0.0604248
4.492;-0.0610352
4.493;-0.0619507
4.494;-0.062561
4.495;-0.0634766
4.496;-0.0640869
4.497;-0.0646973
4.498;-0.0656128
4.499;-0.0665283
4.5;-0.067749
4.501;-0.0689697
4.502;-0.0701904
4.503;-0.071106
4.504;-0.0720215
4.505;-0.0723267
4.506;-0.0720215
4.507;-0.071106
4.508;-0.0692749
4.509;-0.0674438
4.51;-0.065918
4.511;-0.0650024
4.512;-0.0637817
4.513;-0.062561
4.514;-0.0610352
4.515;-0.0592041
4.516;-0.0576782
4.517;-0.0561523
4.518;-0.0543213
4.519;-0.0527954
4.52;-0.0512695
4.521;-0.0497437
4.522;-0.0482178
4.523;-0.0469971
4.524;-0.0463867
4.525;-0.0460815
4.526;-0.0460815
4.527;-0.0466919
4.528;-0.0479126
4.529;-0.0494385
4.53;-0.0509644
4.531;-0.0527954
4.532;-0.0543213
4.533;-0.0561523
4.534;-0.0582886
4.535;-0.0601196
4.536;-0.062561
4.537;-0.0646973
4.538;-0.0665283
4.539;-0.0680542
4.54;-0.0695801
4.541;-0.0704956
4.542;-0.0708008
4.543;-0.0714111
4.544;-0.0714111
4.545;-0.0714111
4.546;-0.0714111
4.547;-0.0714111
4.548;-0.071106
4.549;-0.0704956
4.55;-0.0701904
4.551;-0.0689697
4.552;-0.0674438
4.553;-0.0653076
4.554;-0.0634766
4.555;-0.0619507
4.556;-0.06073
4.557;-0.0598145
4.558;-0.0592041
4.559;-0.0585938
4.56;-0.0579834
4.561;-0.057373
4.562;-0.0570679
4.563;-0.0570679
4.564;-0.0570679
4.565;-0.0570679
4.566;-0.0567627
4.567;-0.0567627
4.568;-0.0567627
4.569;-0.0567627
4.57;-0.0567627
4.571;-0.0570679
4.572;-0.0570679
4.573;-0.0567627
4.574;-0.0567627
4.575;-0.0561523
4.576;-0.0552368
4.577;-0.0543213
4.578;-0.0531006
4.579;-0.0521851
4.58;-0.0512695
4.581;-0.0506592
4.582;-0.0497437
4.583;-0.0491333
4.584;-0.0482178
4.585;-0.0476074
4.586;-0.0466919
4.587;-0.0460815
4.588;-0.0454712
4.589;-0.0445557
4.59;-0.0442505
4.591;-0.0439453
4.592;-0.0439453
4.593;-0.0442505
4.594;-0.0445557
4.595;-0.0445557
4.596;-0.0439453
4.597;-0.0436401
4.598;-0.0430298
4.599;-0.0427246
4.6;-0.0427246
4.601;-0.0430298
4.602;-0.043335
4.603;-0.043335
4.604;-0.0424194
4.605;-0.0408936
4.606;-0.0384521
4.607;-0.0357056
4.608;-0.0335693
4.609;-0.0320435
4.61;-0.0311279
4.611;-0.0308228
4.612;-0.0308228
4.613;-0.0308228
4.614;-0.0308228
4.615;-0.0305176
4.616;-0.0299072
4.617;-0.0292969
4.618;-0.0286865
4.619;-0.0283813
4.62;-0.0286865
4.621;-0.0289917
4.622;-0.0299072
4.623;-0.0311279
4.624;-0.0326538
4.625;-0.0344849
4.626;-0.0363159
4.627;-0.038147
4.628;-0.0396729
4.629;-0.0408936
4.63;-0.0418091
4.631;-0.0424194
4.632;-0.0436401
4.633;-0.0445557
4.634;-0.0454712
4.635;-0.0460815
4.636;-0.0463867
4.637;-0.0466919
4.638;-0.0473022
4.639;-0.0479126
4.64;-0.0479126
4.641;-0.0473022
4.642;-0.0460815
4.643;-0.0439453
4.644;-0.0418091
4.645;-0.0396729
4.646;-0.038147
4.647;-0.0366211
4.648;-0.0357056
4.649;-0.0344849
4.65;-0.0332642
4.651;-0.0317383
4.652;-0.0302124
4.653;-0.0286865
4.654;-0.0274658
4.655;-0.0265503
4.656;-0.0253296
4.657;-0.0247192
4.658;-0.0241089
4.659;-0.0238037
4.66;-0.0238037
4.661;-0.0247192
4.662;-0.0256348
4.663;-0.0271606
4.664;-0.0286865
4.665;-0.0302124
4.666;-0.0317383
4.667;-0.032959
4.668;-0.0341797
4.669;-0.0350952
4.67;-0.0357056
4.671;-0.0366211
4.672;-0.0372314
4.673;-0.038147
4.674;-0.0390625
4.675;-0.0396729
4.676;-0.039978
4.677;-0.039978
4.678;-0.0396729
4.679;-0.0390625
4.68;-0.038147
4.681;-0.0375366
4.682;-0.0372314
4.683;-0.0369263
4.684;-0.0369263
4.685;-0.0369263
4.686;-0.0369263
4.687;-0.0369263
4.688;-0.0369263
4.689;-0.0369263
4.69;-0.0369263
4.691;-0.0369263
4.692;-0.0372314
4.693;-0.0372314
4.694;-0.0369263
4.695;-0.0363159
4.696;-0.0357056
4.697;-0.0354004
4.698;-0.0350952
4.699;-0.0350952
4.7;-0.0350952
4.701;-0.0354004
4.702;-0.0354004
4.703;-0.0354004
4.704;-0.0350952
4.705;-0.03479
4.706;-0.03479
4.707;-0.0344849
4.708;-0.0341797
4.709;-0.0344849
4.71;-0.03479
4.711;-0.0350952
4.712;-0.0354004
4.713;-0.0357056
4.714;-0.0363159
4.715;-0.0369263
4.716;-0.0378418
4.717;-0.0390625
4.718;-0.0402832
4.719;-0.0415039
4.72;-0.0427246
4.721;-0.043335
4.722;-0.0436401
4.723;-0.0436401
4.724;-0.0436401
4.725;-0.0436401
4.726;-0.0436401
4.727;-0.0439453
4.728;-0.0445557
4.729;-0.045166
4.73;-0.0460815
4.731;-0.0469971
4.732;-0.0479126
4.733;-0.0485229
4.734;-0.0491333
4.735;-0.0491333
4.736;-0.0491333
4.737;-0.0491333
4.738;-0.0494385
4.739;-0.0500488
4.74;-0.0509644
4.741;-0.0518799
4.742;-0.0524902
4.743;-0.0527954
4.744;-0.0527954
4.745;-0.0527954
4.746;-0.0518799
4.747;-0.0509644
4.748;-0.0491333
4.749;-0.0476074
4.75;-0.0457764
4.751;-0.0439453
4.752;-0.0421143
4.753;-0.0402832
4.754;-0.0384521
4.755;-0.0363159
4.756;-0.03479
4.757;-0.032959
4.758;-0.0314331
4.759;-0.0302124
4.76;-0.0292969
4.761;-0.0286865
4.762;-0.0283813
4.763;-0.0283813
4.764;-0.0289917
4.765;-0.0299072
4.766;-0.0314331
4.767;-0.032959
4.768;-0.0350952
4.769;-0.0372314
4.77;-0.0390625
4.771;-0.0408936
4.772;-0.0424194
4.773;-0.0436401
4.774;-0.0448608
4.775;-0.0463867
4.776;-0.0476074
4.777;-0.0488281
4.778;-0.0500488
4.779;-0.0509644
4.78;-0.0515747
4.781;-0.0515747
4.782;-0.0512695
4.783;-0.0506592
4.784;-0.0497437
4.785;-0.0485229
4.786;-0.0469971
4.787;-0.0457764
4.788;-0.0442505
4.789;-0.0427246
4.79;-0.0415039
4.791;-0.0402832
4.792;-0.0393677
4.793;-0.0387573
4.794;-0.0384521
4.795;-0.0387573
4.796;-0.0390625
4.797;-0.0396729
4.798;-0.0405884
4.799;-0.0411987
4.8;-0.0418091
4.801;-0.0424194
4.802;-0.0430298
4.803;-0.0439453
4.804;-0.0445557
4.805;-0.0445557
4.806;-0.0445557
4.807;-0.0445557
4.808;-0.0445557
4.809;-0.045166
4.81;-0.0457764
4.811;-0.0460815
4.812;-0.0466919
4.813;-0.0469971
4.814;-0.0469971
4.815;-0.0466919
4.816;-0.0457764
4.817;-0.0445557
4.818;-0.0427246
4.819;-0.0415039
4.82;-0.0402832
4.821;-0.0396729
4.822;-0.0387573
4.823;-0.038147
4.824;-0.0375366
4.825;-0.0372314
4.826;-0.0372314
4.827;-0.038147
4.828;-0.0390625
4.829;-0.0402832
4.83;-0.0408936
4.831;-0.0411987
4.832;-0.0408936
4.833;-0.0405884
4.834;-0.0402832
4.835;-0.0402832
4.836;-0.0405884
4.837;-0.0415039
4.838;-0.0424194
4.839;-0.043335
4.84;-0.0436401
4.841;-0.0439453
4.842;-0.0436401
4.843;-0.043335
4.844;-0.0430298
4.845;-0.0430298
4.846;-0.043335
4.847;-0.0439453
4.848;-0.0445557
4.849;-0.0448608
4.85;-0.0445557
4.851;-0.0442505
4.852;-0.0439453
4.853;-0.0436401
4.854;-0.0427246
4.855;-0.0415039
4.856;-0.0405884
4.857;-0.0396729
4.858;-0.0390625
4.859;-0.0387573
4.86;-0.0387573
4.861;-0.0384521
4.862;-0.0378418
4.863;-0.0372314
4.864;-0.0366211
4.865;-0.0360107
4.866;-0.0357056
4.867;-0.0354004
4.868;-0.0350952
4.869;-0.03479
4.87;-0.03479
4.871;-0.03479
4.872;-0.0350952
4.873;-0.0354004
4.874;-0.0360107
4.875;-0.0366211
4.876;-0.0369263
4.877;-0.0369263
4.878;-0.0369263
4.879;-0.0366211
4.88;-0.0366211
4.881;-0.0363159
4.882;-0.0357056
4.883;-0.03479
4.884;-0.0335693
4.885;-0.0320435
4.886;-0.0305176
4.887;-0.0286865
4.888;-0.0268555
4.889;-0.0247192
4.89;-0.0228882
4.891;-0.020752
4.892;-0.0186157
4.893;-0.0161743
4.894;-0.0140381
4.895;-0.0119019
4.896;-0.00946045
4.897;-0.00732422
4.898;-0.00518799
4.899;-0.00335693
4.9;-0.0012207
4.901;0.0012207
4.902;0.00427246
4.903;0.00701904
4.904;0.00946045
4.905;0.0112915
4.906;0.0128174
4.907;0.0137329
4.908;0.0140381
4.909;0.0140381
4.91;0.0140381
4.911;0.0143433
4.912;0.0143433
4.913;0.0146484
4.914;0.0149536
4.915;0.015564
4.916;0.0161743
4.917;0.0167847
4.918;0.0177002
4.919;0.0189209
4.92;0.0198364
4.921;0.020752
4.922;0.0216675
4.923;0.0228882
4.924;0.0247192
4.925;0.0271606
4.926;0.0299072
4.927;0.032959
4.928;0.0357056
4.929;0.0384521
4.93;0.0405884
4.931;0.0421143
4.932;0.0436401
4.933;0.0448608
4.934;0.0454712
4.935;0.0457764
4.936;0.0454712
4.937;0.0442505
4.938;0.0424194
4.939;0.0402832
4.94;0.0375366
4.941;0.0344849
4.942;0.0311279
4.943;0.0274658
4.944;0.0238037
4.945;0.0201416
4.946;0.0164795
4.947;0.0125122
4.948;0.00854492
4.949;0.00427246
4.95;0.000610352
4.951;-0.00274658
4.952;-0.00549316
4.953;-0.00854492
4.954;-0.0112915
4.955;-0.0140381
4.956;-0.0167847
4.957;-0.0195312
4.958;-0.0222778
4.959;-0.0253296
4.96;-0.0280762
4.961;-0.0311279
4.962;-0.0344849
4.963;-0.0378418
4.964;-0.0411987
4.965;-0.0448608
4.966;-0.0479126
4.967;-0.0509644
4.968;-0.0534058
4.969;-0.0558472
4.97;-0.0579834
4.971;-0.0604248
4.972;-0.0631714
4.973;-0.065918
4.974;-0.0683594
4.975;-0.0701904
4.976;-0.0717163
4.977;-0.0726318
4.978;-0.0732422
4.979;-0.0735474
4.98;-0.0735474
4.981;-0.072937
4.982;-0.0726318
4.983;-0.0726318
4.984;-0.0726318
4.985;-0.072937
4.986;-0.0732422
4.987;-0.0738525
4.988;-0.0747681
4.989;-0.0753784
4.99;-0.0759888
4.991;-0.0762939
4.992;-0.0762939
4.993;-0.0762939
4.994;-0.0759888
4.995;-0.0759888
4.996;-0.0756836
4.997;-0.0753784
4.998;-0.0753784
4.999;-0.0753784
5;-0.0753784
5.001;-0.0750732
5.002;-0.0738525
5.003;-0.0723267
5.004;-0.0708008
5.005;-0.0695801
5.006;-0.0686646
5.007;-0.0674438
5.008;-0.0668335
5.009;-0.065918
5.01;-0.0653076
5.011;-0.0643921
5.012;-0.0634766
5.013;-0.0628662
5.014;-0.0619507
5.015;-0.0610352
5.016;-0.0604248
5.017;-0.0601196
5.018;-0.0601196
5.019;-0.0601196
5.02;-0.06073
5.021;-0.0613403
5.022;-0.0622559
5.023;-0.0631714
5.024;-0.0640869
5.025;-0.0650024
5.026;-0.065918
5.027;-0.0665283
5.028;-0.0671387
5.029;-0.0680542
5.03;-0.0692749
5.031;-0.0701904
5.032;-0.0714111
5.033;-0.0723267
5.034;-0.072937
5.035;-0.0732422
5.036;-0.0735474
5.037;-0.0738525
5.038;-0.0744629
5.039;-0.0750732
5.04;-0.0756836
5.041;-0.0762939
5.042;-0.0759888
5.043;-0.0747681
5.044;-0.0726318
5.045;-0.0698853
5.046;-0.0662231
5.047;-0.0616455
5.048;-0.0564575
5.049;-0.0497437
5.05;-0.0418091
5.051;-0.0326538
5.052;-0.0216675
5.053;-0.00946045
5.054;0.00427246
5.055;0.0189209
5.056;0.03479
5.057;0.0512695
5.058;0.0689697
5.059;0.0878906
5.06;0.108948
5.061;0.131531
5.062;0.15564
5.063;0.181274
5.064;0.20813
5.065;0.236511
5.066;0.266724
5.067;0.299072
5.068;0.334167
5.069;0.371704
5.07;0.410461
5.071;0.450439
5.072;0.490417
5.073;0.52887
5.074;0.56427
5.075;0.595093
5.076;0.619812
5.077;0.637817
5.078;0.648193
5.079;0.650635
5.08;0.645447
5.081;0.632324
5.082;0.611267
5.083;0.583191
5.084;0.548401
5.085;0.507202
5.086;0.46051
5.087;0.408325
5.088;0.351562
5.089;0.290833
5.09;0.227051
5.091;0.161743
5.092;0.0958252
5.093;0.0317383
5.094;-0.0292969
5.095;-0.0854492
5.096;-0.135803
5.097;-0.179443
5.098;-0.215454
5.099;-0.24353
5.1;-0.263672
5.101;-0.276184
5.102;-0.282288
5.103;-0.282288
5.104;-0.277405
5.105;-0.26886
5.106;-0.257263
5.107;-0.243225
5.108;-0.227051
5.109;-0.209961
5.11;-0.192261
5.111;-0.175476
5.112;-0.159912
5.113;-0.146179
5.114;-0.133972
5.115;-0.123596
5.116;-0.114441
5.117;-0.106506
5.118;-0.0994873
5.119;-0.0939941
5.12;-0.0897217
5.121;-0.0866699
5.122;-0.0845337
5.123;-0.083313
5.124;-0.0830078
5.125;-0.0827026
5.126;-0.0830078
5.127;-0.0836182
5.128;-0.0842285
5.129;-0.0848389
5.13;-0.0854492
5.131;-0.0866699
5.132;-0.0875854
5.133;-0.0888062
5.134;-0.0900269
5.135;-0.0912476
5.136;-0.0924683
5.137;-0.0933838
5.138;-0.0939941
5.139;-0.093689
5.14;-0.0927734
5.141;-0.0915527
5.142;-0.090332
5.143;-0.0888062
5.144;-0.0872803
5.145;-0.0854492
5.146;-0.0842285
5.147;-0.0827026
5.148;-0.0817871
5.149;-0.0805664
5.15;-0.0793457
5.151;-0.078125
5.152;-0.0769043
5.153;-0.0759888
5.154;-0.0750732
5.155;-0.0741577
5.156;-0.0738525
5.157;-0.0738525
5.158;-0.0741577
5.159;-0.0750732
5.16;-0.0759888
5.161;-0.0772095
5.162;-0.0787354
5.163;-0.0799561
5.164;-0.0811768
5.165;-0.0820923
5.166;-0.0827026
5.167;-0.0830078
5.168;-0.083313
5.169;-0.0830078
5.17;-0.0827026
5.171;-0.0820923
5.172;-0.0811768
5.173;-0.0796509
5.174;-0.078125
5.175;-0.0765991
5.176;-0.0747681
5.177;-0.0732422
5.178;-0.0717163
5.179;-0.0698853
5.18;-0.0680542
5.181;-0.0665283
5.182;-0.0650024
5.183;-0.0634766
5.184;-0.0622559
5.185;-0.0613403
5.186;-0.0604248
5.187;-0.0601196
5.188;-0.0604248
5.189;-0.06073
5.19;-0.0616455
5.191;-0.0622559
5.192;-0.0628662
5.193;-0.0628662
5.194;-0.0628662
5.195;-0.062561
5.196;-0.0619507
5.197;-0.0616455
5.198;-0.0613403
5.199;-0.0610352
5.2;-0.0604248
5.201;-0.0601196
5.202;-0.0598145
5.203;-0.0595093
5.204;-0.0592041
5.205;-0.0585938
5.206;-0.0579834
5.207;-0.0561523
5.208;-0.0543213
5.209;-0.0521851
5.21;-0.0506592
5.211;-0.0494385
5.212;-0.0485229
5.213;-0.0479126
5.214;-0.0476074
5.215;-0.0466919
5.216;-0.0457764
5.217;-0.0448608
5.218;-0.0436401
5.219;-0.0424194
5.22;-0.0415039
5.221;-0.0405884
5.222;-0.0396729
5.223;-0.0387573
5.224;-0.0375366
5.225;-0.0366211
5.226;-0.0357056
5.227;-0.03479
5.228;-0.0338745
5.229;-0.032959
5.23;-0.0320435
5.231;-0.0311279
5.232;-0.0302124
5.233;-0.0296021
5.234;-0.0286865
5.235;-0.0274658
5.236;-0.0259399
5.237;-0.0241089
5.238;-0.0222778
5.239;-0.0201416
5.24;-0.0183105
5.241;-0.0167847
5.242;-0.0149536
5.243;-0.0131226
5.244;-0.0115967
5.245;-0.0100708
5.246;-0.00854492
5.247;-0.00671387
5.248;-0.00488281
5.249;-0.00305176
5.25;-0.000915527
5.251;0.0012207
5.252;0.00335693
5.253;0.00549316
5.254;0.00762939
5.255;0.0100708
5.256;0.0125122
5.257;0.0146484
5.258;0.0167847
5.259;0.0192261
5.26;0.0216675
5.261;0.0241089
5.262;0.0268555
5.263;0.0296021
5.264;0.0326538
5.265;0.0354004
5.266;0.0384521
5.267;0.0415039
5.268;0.0439453
5.269;0.0460815
5.27;0.0485229
5.271;0.0509644
5.272;0.0543213
5.273;0.0579834
5.274;0.0622559
5.275;0.065918
5.276;0.0692749
5.277;0.0720215
5.278;0.0741577
5.279;0.0759888
5.28;0.0778198
5.281;0.0799561
5.282;0.0823975
5.283;0.085144
5.284;0.0878906
5.285;0.0906372
5.286;0.0933838
5.287;0.0958252
5.288;0.0982666
5.289;0.100403
5.29;0.102234
5.291;0.10437
5.292;0.105896
5.293;0.107422
5.294;0.108948
5.295;0.110168
5.296;0.111389
5.297;0.11261
5.298;0.113831
5.299;0.114746
5.3;0.115356
5.301;0.115662
5.302;0.115967
5.303;0.115967
5.304;0.115662
5.305;0.115051
5.306;0.114441
5.307;0.113831
5.308;0.113525
5.309;0.113525
5.31;0.113831
5.311;0.113831
5.312;0.113831
5.313;0.11322
5.314;0.11261
5.315;0.111084
5.316;0.109253
5.317;0.107117
5.318;0.10498
5.319;0.102539
5.32;0.100403
5.321;0.0979614
5.322;0.09552
5.323;0.0924683
5.324;0.0891113
5.325;0.085144
5.326;0.0808716
5.327;0.0762939
5.328;0.0714111
5.329;0.0668335
5.33;0.0622559
5.331;0.0576782
5.332;0.0527954
5.333;0.0479126
5.334;0.0424194
5.335;0.0372314
5.336;0.0317383
5.337;0.0262451
5.338;0.0210571
5.339;0.0158691
5.34;0.0109863
5.341;0.00640869
5.342;0.00213623
5.343;-0.00183105
5.344;-0.00549316
5.345;-0.0088501
5.346;-0.0115967
5.347;-0.0143433
5.348;-0.0167847
5.349;-0.0192261
5.35;-0.0219727
5.351;-0.0250244
5.352;-0.0283813
5.353;-0.0320435
5.354;-0.0350952
5.355;-0.0378418
5.356;-0.0405884
5.357;-0.0436401
5.358;-0.0463867
5.359;-0.0488281
5.36;-0.0509644
5.361;-0.0527954
5.362;-0.0549316
5.363;-0.0579834
5.364;-0.0610352
5.365;-0.0640869
5.366;-0.0668335
5.367;-0.0692749
5.368;-0.071106
5.369;-0.0723267
5.37;-0.0738525
5.371;-0.0750732
5.372;-0.0759888
5.373;-0.0772095
5.374;-0.0778198
5.375;-0.0784302
5.376;-0.0787354
5.377;-0.0790405
5.378;-0.0790405
5.379;-0.0790405
5.38;-0.0793457
5.381;-0.0790405
5.382;-0.0784302
5.383;-0.0775146
5.384;-0.0765991
5.385;-0.0762939
5.386;-0.0765991
5.387;-0.0775146
5.388;-0.0787354
5.389;-0.0802612
5.39;-0.0811768
5.391;-0.0817871
5.392;-0.0817871
5.393;-0.0814819
5.394;-0.0811768
5.395;-0.0811768
5.396;-0.0817871
5.397;-0.0827026
5.398;-0.0839233
5.399;-0.0854492
5.4;-0.0869751
5.401;-0.0881958
5.402;-0.0891113
5.403;-0.0897217
5.404;-0.0891113
5.405;-0.0881958
5.406;-0.0872803
5.407;-0.0863647
5.408;-0.0854492
5.409;-0.0848389
5.41;-0.0839233
5.411;-0.0830078
5.412;-0.0814819
5.413;-0.0802612
5.414;-0.0790405
5.415;-0.0778198
5.416;-0.0769043
5.417;-0.0762939
5.418;-0.0753784
5.419;-0.0747681
5.42;-0.0738525
5.421;-0.0732422
5.422;-0.072937
5.423;-0.072937
5.424;-0.0732422
5.425;-0.0741577
5.426;-0.0750732
5.427;-0.0759888
5.428;-0.0772095
5.429;-0.078125
5.43;-0.0790405
5.431;-0.0799561
5.432;-0.0805664
5.433;-0.0811768
5.434;-0.0814819
5.435;-0.0814819
5.436;-0.0814819
5.437;-0.0811768
5.438;-0.0805664
5.439;-0.0799561
5.44;-0.0790405
5.441;-0.078125
5.442;-0.0769043
5.443;-0.0759888
5.444;-0.0747681
5.445;-0.0735474
5.446;-0.0723267
5.447;-0.0714111
5.448;-0.0704956
5.449;-0.0698853
5.45;-0.0695801
5.451;-0.0689697
5.452;-0.0689697
5.453;-0.0686646
5.454;-0.0689697
5.455;-0.0689697
5.456;-0.0686646
5.457;-0.0683594
5.458;-0.0680542
5.459;-0.067749
5.46;-0.0674438
5.461;-0.0671387
5.462;-0.0671387
5.463;-0.0668335
5.464;-0.0671387
5.465;-0.0668335
5.466;-0.0665283
5.467;-0.0656128
5.468;-0.0646973
5.469;-0.0643921
5.47;-0.0646973
5.471;-0.0656128
5.472;-0.0671387
5.473;-0.0686646
5.474;-0.0701904
5.475;-0.0714111
5.476;-0.0723267
5.477;-0.0735474
5.478;-0.0744629
5.479;-0.0750732
5.48;-0.0756836
5.481;-0.0762939
5.482;-0.0765991
5.483;-0.0769043
5.484;-0.0765991
5.485;-0.0762939
5.486;-0.0750732
5.487;-0.0735474
5.488;-0.0720215
5.489;-0.0701904
5.49;-0.0683594
5.491;-0.0665283
5.492;-0.0650024
5.493;-0.0634766
5.494;-0.0616455
5.495;-0.0595093
5.496;-0.057373
5.497;-0.0552368
5.498;-0.0534058
5.499;-0.0521851
5.5;-0.0506592
5.501;-0.0494385
5.502;-0.0488281
5.503;-0.0482178
5.504;-0.0482178
5.505;-0.0476074
5.506;-0.0466919
5.507;-0.0454712
5.508;-0.0442505
5.509;-0.0427246
5.51;-0.0418091
5.511;-0.0408936
5.512;-0.0402832
5.513;-0.0396729
5.514;-0.0393677
5.515;-0.0390625
5.516;-0.0387573
5.517;-0.0387573
5.518;-0.038147
5.519;-0.0378418
5.52;-0.0375366
5.521;-0.0378418
5.522;-0.0390625
5.523;-0.0405884
5.524;-0.0421143
5.525;-0.0436401
5.526;-0.0448608
5.527;-0.0460815
5.528;-0.0469971
5.529;-0.0479126
5.53;-0.0482178
5.531;-0.0485229
5.532;-0.0491333
5.533;-0.0500488
5.534;-0.0506592
5.535;-0.0512695
5.536;-0.0515747
5.537;-0.0518799
5.538;-0.0518799
5.539;-0.0515747
5.54;-0.0512695
5.541;-0.0506592
5.542;-0.050354
5.543;-0.0500488
5.544;-0.0500488
5.545;-0.0500488
5.546;-0.050354
5.547;-0.0506592
5.548;-0.0509644
5.549;-0.0512695
5.55;-0.0515747
5.551;-0.0518799
5.552;-0.0518799
5.553;-0.0518799
5.554;-0.0518799
5.555;-0.0521851
5.556;-0.0524902
5.557;-0.0527954
5.558;-0.0531006
5.559;-0.0534058
5.56;-0.0531006
5.561;-0.0521851
5.562;-0.0509644
5.563;-0.0494385
5.564;-0.0479126
5.565;-0.0469971
5.566;-0.0463867
5.567;-0.0460815
5.568;-0.0457764
5.569;-0.0457764
5.57;-0.0454712
5.571;-0.0454712
5.572;-0.0454712
5.573;-0.0457764
5.574;-0.0460815
5.575;-0.0463867
5.576;-0.0469971
5.577;-0.0473022
5.578;-0.0476074
5.579;-0.0476074
5.58;-0.0479126
5.581;-0.0482178
5.582;-0.0491333
5.583;-0.050354
5.584;-0.0518799
5.585;-0.0534058
5.586;-0.0549316
5.587;-0.0561523
5.588;-0.0570679
5.589;-0.0579834
5.59;-0.0588989
5.591;-0.0592041
5.592;-0.0598145
5.593;-0.0598145
5.594;-0.0601196
5.595;-0.0601196
5.596;-0.0601196
5.597;-0.0604248
5.598;-0.0604248
5.599;-0.06073
5.6;-0.0610352
5.601;-0.06073
5.602;-0.0601196
5.603;-0.0592041
5.604;-0.0579834
5.605;-0.0567627
5.606;-0.0558472
5.607;-0.0549316
5.608;-0.0543213
5.609;-0.0537109
5.61;-0.0537109
5.611;-0.0534058
5.612;-0.0531006
5.613;-0.0531006
5.614;-0.0524902
5.615;-0.0518799
5.616;-0.0509644
5.617;-0.050354
5.618;-0.0497437
5.619;-0.0491333
5.62;-0.0485229
5.621;-0.0485229
5.622;-0.0485229
5.623;-0.0488281
5.624;-0.0494385
5.625;-0.0500488
5.626;-0.0494385
5.627;-0.0482178
5.628;-0.0466919
5.629;-0.0448608
5.63;-0.043335
5.631;-0.0424194
5.632;-0.0421143
5.633;-0.0421143
5.634;-0.0424194
5.635;-0.0430298
5.636;-0.0439453
5.637;-0.0448608
5.638;-0.0457764
5.639;-0.0466919
5.64;-0.0476074
5.641;-0.0485229
5.642;-0.0488281
5.643;-0.0494385
5.644;-0.0497437
5.645;-0.050354
5.646;-0.0512695
5.647;-0.0524902
5.648;-0.0537109
5.649;-0.0552368
5.65;-0.0561523
5.651;-0.0570679
5.652;-0.0579834
5.653;-0.0582886
5.654;-0.0585938
5.655;-0.0585938
5.656;-0.0585938
5.657;-0.0585938
5.658;-0.0579834
5.659;-0.057373
5.66;-0.0564575
5.661;-0.055542
5.662;-0.0549316
5.663;-0.0543213
5.664;-0.0537109
5.665;-0.0534058
5.666;-0.0531006
5.667;-0.0531006
5.668;-0.0527954
5.669;-0.0527954
5.67;-0.0527954
5.671;-0.0518799
5.672;-0.0509644
5.673;-0.0494385
5.674;-0.0479126
5.675;-0.0463867
5.676;-0.045166
5.677;-0.0436401
5.678;-0.0424194
5.679;-0.0415039
5.68;-0.0405884
5.681;-0.039978
5.682;-0.039978
5.683;-0.0402832
5.684;-0.0411987
5.685;-0.0424194
5.686;-0.0439453
5.687;-0.0457764
5.688;-0.0476074
5.689;-0.0494385
5.69;-0.0506592
5.691;-0.0518799
5.692;-0.0531006
5.693;-0.0543213
5.694;-0.0558472
5.695;-0.057373
5.696;-0.0588989
5.697;-0.0601196
5.698;-0.06073
5.699;-0.06073
5.7;-0.0601196
5.701;-0.0592041
5.702;-0.0579834
5.703;-0.0564575
5.704;-0.0549316
5.705;-0.0537109
5.706;-0.0521851
5.707;-0.0509644
5.708;-0.0497437
5.709;-0.0485229
5.71;-0.0469971
5.711;-0.0457764
5.712;-0.0442505
5.713;-0.0430298
5.714;-0.0421143
5.715;-0.0418091
5.716;-0.0421143
5.717;-0.0421143
5.718;-0.0424194
5.719;-0.0427246
5.72;-0.043335
5.721;-0.0439453
5.722;-0.0448608
5.723;-0.0457764
5.724;-0.0460815
5.725;-0.0460815
5.726;-0.0457764
5.727;-0.0454712
5.728;-0.0454712
5.729;-0.045166
5.73;-0.0454712
5.731;-0.0454712
5.732;-0.0454712
5.733;-0.045166
5.734;-0.0448608
5.735;-0.0448608
5.736;-0.045166
5.737;-0.0454712
5.738;-0.0454712
5.739;-0.045166
5.74;-0.0445557
5.741;-0.0439453
5.742;-0.0436401
5.743;-0.0436401
5.744;-0.0439453
5.745;-0.0442505
5.746;-0.0445557
5.747;-0.0448608
5.748;-0.045166
5.749;-0.0454712
5.75;-0.0457764
5.751;-0.0460815
5.752;-0.0463867
5.753;-0.0460815
5.754;-0.045166
5.755;-0.0445557
5.756;-0.0442505
5.757;-0.0442505
5.758;-0.045166
5.759;-0.0460815
5.76;-0.0473022
5.761;-0.0485229
5.762;-0.0494385
5.763;-0.050354
5.764;-0.0506592
5.765;-0.0509644
5.766;-0.0506592
5.767;-0.0500488
5.768;-0.0494385
5.769;-0.0488281
5.77;-0.0482178
5.771;-0.0476074
5.772;-0.0469971
5.773;-0.0463867
5.774;-0.0457764
5.775;-0.0454712
5.776;-0.0448608
5.777;-0.0439453
5.778;-0.0430298
5.779;-0.0421143
5.78;-0.0408936
5.781;-0.039978
5.782;-0.0390625
5.783;-0.0384521
5.784;-0.0378418
5.785;-0.0375366
5.786;-0.0372314
5.787;-0.0372314
5.788;-0.0369263
5.789;-0.0366211
5.79;-0.0360107
5.791;-0.0354004
5.792;-0.0341797
5.793;-0.0332642
5.794;-0.0323486
5.795;-0.0314331
5.796;-0.0305176
5.797;-0.0299072
5.798;-0.0296021
5.799;-0.0289917
5.8;-0.0283813
5.801;-0.027771
5.802;-0.0268555
5.803;-0.0259399
5.804;-0.0247192
5.805;-0.0228882
5.806;-0.0204468
5.807;-0.0180054
5.808;-0.015564
5.809;-0.0134277
5.81;-0.0115967
5.811;-0.00976562
5.812;-0.00793457
5.813;-0.00610352
5.814;-0.00396729
5.815;-0.00183105
5.816;0.000610352
5.817;0.00305176
5.818;0.00549316
5.819;0.00793457
5.82;0.0100708
5.821;0.0119019
5.822;0.0134277
5.823;0.0146484
5.824;0.0152588
5.825;0.015564
5.826;0.015564
5.827;0.015564
5.828;0.015564
5.829;0.015564
5.83;0.0158691
5.831;0.0158691
5.832;0.0161743
5.833;0.0164795
5.834;0.0170898
5.835;0.0177002
5.836;0.0186157
5.837;0.0198364
5.838;0.0210571
5.839;0.0222778
5.84;0.0231934
5.841;0.0244141
5.842;0.0259399
5.843;0.0280762
5.844;0.0308228
5.845;0.0338745
5.846;0.0366211
5.847;0.0387573
5.848;0.039978
5.849;0.0405884
5.85;0.0405884
5.851;0.0402832
5.852;0.0393677
5.853;0.038147
5.854;0.0366211
5.855;0.0350952
5.856;0.0335693
5.857;0.0314331
5.858;0.0292969
5.859;0.0265503
5.86;0.0231934
5.861;0.0192261
5.862;0.0146484
5.863;0.0100708
5.864;0.00549316
5.865;0.000915527
5.866;-0.00335693
5.867;-0.00762939
5.868;-0.0112915
5.869;-0.0149536
5.87;-0.0183105
5.871;-0.0219727
5.872;-0.0253296
5.873;-0.0286865
5.874;-0.0317383
5.875;-0.0344849
5.876;-0.0375366
5.877;-0.0402832
5.878;-0.0430298
5.879;-0.0454712
5.88;-0.0469971
5.881;-0.0482178
5.882;-0.0488281
5.883;-0.0494385
5.884;-0.050354
5.885;-0.0512695
5.886;-0.0524902
5.887;-0.0537109
5.888;-0.0549316
5.889;-0.0564575
5.89;-0.0576782
5.891;-0.0592041
5.892;-0.0610352
5.893;-0.062561
5.894;-0.0637817
5.895;-0.0646973
5.896;-0.0650024
5.897;-0.0653076
5.898;-0.0653076
5.899;-0.0656128
5.9;-0.065918
5.901;-0.0662231
5.902;-0.0668335
5.903;-0.0674438
5.904;-0.067749
5.905;-0.0680542
5.906;-0.0680542
5.907;-0.0680542
5.908;-0.067749
5.909;-0.0671387
5.91;-0.0665283
5.911;-0.0662231
5.912;-0.0656128
5.913;-0.0650024
5.914;-0.0646973
5.915;-0.0640869
5.916;-0.0634766
5.917;-0.0631714
5.918;-0.0628662
5.919;-0.0622559
5.92;-0.0616455
5.921;-0.0601196
5.922;-0.0585938
5.923;-0.0567627
5.924;-0.0552368
5.925;-0.0537109
5.926;-0.0527954
5.927;-0.0518799
5.928;-0.0512695
5.929;-0.0506592
5.93;-0.0497437
5.931;-0.0488281
5.932;-0.0479126
5.933;-0.0469971
5.934;-0.0466919
5.935;-0.0463867
5.936;-0.0463867
5.937;-0.0466919
5.938;-0.0476074
5.939;-0.0482178
5.94;-0.0494385
5.941;-0.050354
5.942;-0.0512695
5.943;-0.0518799
5.944;-0.0527954
5.945;-0.0540161
5.946;-0.0552368
5.947;-0.0567627
5.948;-0.0579834
5.949;-0.0588989
5.95;-0.0598145
5.951;-0.06073
5.952;-0.0616455
5.953;-0.0622559
5.954;-0.0622559
5.955;-0.0619507
5.956;-0.0604248
5.957;-0.0582886
5.958;-0.0549316
5.959;-0.0506592
5.96;-0.0448608
5.961;-0.0375366
5.962;-0.0283813
5.963;-0.0180054
5.964;-0.00610352
5.965;0.00732422
5.966;0.0216675
5.967;0.0375366
5.968;0.0549316
5.969;0.0732422
5.97;0.0930786
5.971;0.114136
5.972;0.136719
5.973;0.160828
5.974;0.187073
5.975;0.214844
5.976;0.244446
5.977;0.275879
5.978;0.308838
5.979;0.343628
5.98;0.380249
5.981;0.417786
5.982;0.455933
5.983;0.493774
5.984;0.53009
5.985;0.56366
5.986;0.592957
5.987;0.615845
5.988;0.631714
5.989;0.639343
5.99;0.638733
5.991;0.630188
5.992;0.614319
5.993;0.591125
5.994;0.561523
5.995;0.525513
5.996;0.483704
5.997;0.436401
5.998;0.384216
5.999;0.327148
6;0.266418
6.001;0.203247
6.002;0.138855
6.003;0.0744629
6.004;0.012207
6.005;-0.0473022
6.006;-0.101624
6.007;-0.149536
6.008;-0.19043
6.009;-0.223389
6.01;-0.248108
6.011;-0.265198
6.012;-0.275269
6.013;-0.27832
6.014;-0.275879
6.015;-0.268555
6.016;-0.257263
6.017;-0.243225
6.018;-0.227051
6.019;-0.209961
6.02;-0.192261
6.021;-0.175171
6.022;-0.158386
6.023;-0.143127
6.024;-0.1297
6.025;-0.117798
6.026;-0.107422
6.027;-0.0985718
6.028;-0.0909424
6.029;-0.0845337
6.03;-0.0793457
6.031;-0.0753784
6.032;-0.0726318
6.033;-0.071106
6.034;-0.0704956
6.035;-0.0704956
6.036;-0.071106
6.037;-0.0717163
6.038;-0.0726318
6.039;-0.0732422
6.04;-0.0735474
6.041;-0.0738525
6.042;-0.0738525
6.043;-0.0738525
6.044;-0.0735474
6.045;-0.0732422
6.046;-0.0732422
6.047;-0.0732422
6.048;-0.0735474
6.049;-0.0738525
6.05;-0.0738525
6.051;-0.0744629
6.052;-0.0747681
6.053;-0.0750732
6.054;-0.0750732
6.055;-0.0750732
6.056;-0.0747681
6.057;-0.0744629
6.058;-0.0738525
6.059;-0.0732422
6.06;-0.0726318
6.061;-0.0717163
6.062;-0.0708008
6.063;-0.0701904
6.064;-0.0692749
6.065;-0.0686646
6.066;-0.067749
6.067;-0.0665283
6.068;-0.0653076
6.069;-0.0637817
6.07;-0.0619507
6.071;-0.0604248
6.072;-0.0592041
6.073;-0.0588989
6.074;-0.0588989
6.075;-0.0592041
6.076;-0.0592041
6.077;-0.0585938
6.078;-0.0579834
6.079;-0.0570679
6.08;-0.0561523
6.081;-0.0552368
6.082;-0.0546265
6.083;-0.0540161
6.084;-0.0537109
6.085;-0.0531006
6.086;-0.0524902
6.087;-0.0518799
6.088;-0.0512695
6.089;-0.050354
6.09;-0.0497437
6.091;-0.0491333
6.092;-0.0485229
6.093;-0.0479126
6.094;-0.0473022
6.095;-0.0463867
6.096;-0.0457764
6.097;-0.0454712
6.098;-0.0454712
6.099;-0.0457764
6.1;-0.0460815
6.101;-0.0466919
6.102;-0.0476074
6.103;-0.0485229
6.104;-0.0491333
6.105;-0.0494385
6.106;-0.0497437
6.107;-0.050354
6.108;-0.0506592
6.109;-0.0509644
6.11;-0.050354
6.111;-0.0494385
6.112;-0.0482178
6.113;-0.0469971
6.114;-0.0460815
6.115;-0.0448608
6.116;-0.0439453
6.117;-0.0427246
6.118;-0.0411987
6.119;-0.0396729
6.12;-0.0384521
6.121;-0.0369263
6.122;-0.0357056
6.123;-0.0344849
6.124;-0.0332642
6.125;-0.0320435
6.126;-0.0311279
6.127;-0.0299072
6.128;-0.0289917
6.129;-0.0283813
6.13;-0.0274658
6.131;-0.0265503
6.132;-0.0256348
6.133;-0.0250244
6.134;-0.0241089
6.135;-0.0228882
6.136;-0.0216675
6.137;-0.0204468
6.138;-0.0192261
6.139;-0.0180054
6.14;-0.0167847
6.141;-0.0158691
6.142;-0.0149536
6.143;-0.0140381
6.144;-0.0128174
6.145;-0.0115967
6.146;-0.010376
6.147;-0.00915527
6.148;-0.00793457
6.149;-0.00701904
6.15;-0.00579834
6.151;-0.00427246
6.152;-0.00274658
6.153;-0.0012207
6.154;0.000610352
6.155;0.00213623
6.156;0.00366211
6.157;0.00488281
6.158;0.00610352
6.159;0.00732422
6.16;0.0088501
6.161;0.010376
6.162;0.0115967
6.163;0.0128174
6.164;0.0143433
6.165;0.0158691
6.166;0.0177002
6.167;0.0192261
6.168;0.0210571
6.169;0.0228882
6.17;0.0247192
6.171;0.0268555
6.172;0.0286865
6.173;0.0305176
6.174;0.0323486
6.175;0.0341797
6.176;0.0360107
6.177;0.038147
6.178;0.0402832
6.179;0.0427246
6.18;0.0454712
6.181;0.0491333
6.182;0.0531006
6.183;0.0570679
6.184;0.06073
6.185;0.0643921
6.186;0.0680542
6.187;0.0717163
6.188;0.0750732
6.189;0.0784302
6.19;0.0820923
6.191;0.0854492
6.192;0.088501
6.193;0.0912476
6.194;0.093689
6.195;0.0958252
6.196;0.0976562
6.197;0.0994873
6.198;0.101013
6.199;0.102539
6.2;0.104065
6.201;0.105591
6.202;0.107117
6.203;0.108337
6.204;0.109253
6.205;0.110168
6.206;0.110779
6.207;0.111084
6.208;0.111084
6.209;0.111084
6.21;0.111389
6.211;0.111694
6.212;0.112
6.213;0.112305
6.214;0.112305
6.215;0.11261
6.216;0.112305
6.217;0.112305
6.218;0.11261
6.219;0.11322
6.22;0.113525
6.221;0.113525
6.222;0.112915
6.223;0.112305
6.224;0.111084
6.225;0.109558
6.226;0.107727
6.227;0.105896
6.228;0.104065
6.229;0.101624
6.23;0.0991821
6.231;0.0967407
6.232;0.0946045
6.233;0.0921631
6.234;0.0897217
6.235;0.0866699
6.236;0.0830078
6.237;0.0793457
6.238;0.0750732
6.239;0.0708008
6.24;0.0668335
6.241;0.0631714
6.242;0.0595093
6.243;0.0561523
6.244;0.0521851
6.245;0.0476074
6.246;0.0430298
6.247;0.0387573
6.248;0.0344849
6.249;0.0305176
6.25;0.0265503
6.251;0.0228882
6.252;0.0189209
6.253;0.0149536
6.254;0.0106812
6.255;0.00579834
6.256;0.000915527
6.257;-0.00457764
6.258;-0.0100708
6.259;-0.0152588
6.26;-0.0204468
6.261;-0.0250244
6.262;-0.0289917
6.263;-0.032959
6.264;-0.0363159
6.265;-0.0396729
6.266;-0.0427246
6.267;-0.0460815
6.268;-0.0491333
6.269;-0.0521851
6.27;-0.0549316
6.271;-0.0579834
6.272;-0.0610352
6.273;-0.0643921
6.274;-0.0671387
6.275;-0.0695801
6.276;-0.0714111
6.277;-0.0726318
6.278;-0.0741577
6.279;-0.0756836
6.28;-0.0772095
6.281;-0.0793457
6.282;-0.0814819
6.283;-0.0836182
6.284;-0.085144
6.285;-0.0863647
6.286;-0.0866699
6.287;-0.0872803
6.288;-0.0878906
6.289;-0.088501
6.29;-0.0894165
6.291;-0.0906372
6.292;-0.0915527
6.293;-0.0921631
6.294;-0.0924683
6.295;-0.0921631
6.296;-0.0912476
6.297;-0.0900269
6.298;-0.0888062
6.299;-0.0872803
6.3;-0.0863647
6.301;-0.0854492
6.302;-0.0848389
6.303;-0.0845337
6.304;-0.0842285
6.305;-0.0839233
6.306;-0.0839233
6.307;-0.0839233
6.308;-0.0845337
6.309;-0.085144
6.31;-0.0860596
6.311;-0.0872803
6.312;-0.0878906
6.313;-0.0878906
6.314;-0.0869751
6.315;-0.0857544
6.316;-0.0848389
6.317;-0.0839233
6.318;-0.0836182
6.319;-0.083313
6.32;-0.083313
6.321;-0.0830078
6.322;-0.0830078
6.323;-0.0830078
6.324;-0.0827026
6.325;-0.0823975
6.326;-0.0817871
6.327;-0.0811768
6.328;-0.0802612
6.329;-0.0793457
6.33;-0.0790405
6.331;-0.0790405
6.332;-0.0793457
6.333;-0.0799561
6.334;-0.0805664
6.335;-0.0814819
6.336;-0.0823975
6.337;-0.083313
6.338;-0.0842285
6.339;-0.085144
6.34;-0.0860596
6.341;-0.0869751
6.342;-0.0875854
6.343;-0.0878906
6.344;-0.0878906
6.345;-0.0872803
6.346;-0.0869751
6.347;-0.0869751
6.348;-0.0869751
6.349;-0.0872803
6.35;-0.0872803
6.351;-0.0869751
6.352;-0.0866699
6.353;-0.0863647
6.354;-0.0857544
6.355;-0.085144
6.356;-0.0839233
6.357;-0.0827026
6.358;-0.0811768
6.359;-0.0802612
6.36;-0.0796509
6.361;-0.0793457
6.362;-0.0790405
6.363;-0.0790405
6.364;-0.0793457
6.365;-0.0793457
6.366;-0.0793457
6.367;-0.0790405
6.368;-0.0787354
6.369;-0.0784302
6.37;-0.078125
6.371;-0.0778198
6.372;-0.0778198
6.373;-0.0778198
6.374;-0.0778198
6.375;-0.0778198
6.376;-0.0775146
6.377;-0.0772095
6.378;-0.0769043
6.379;-0.0769043
6.38;-0.0772095
6.381;-0.0778198
6.382;-0.078125
6.383;-0.0784302
6.384;-0.0784302
6.385;-0.0784302
6.386;-0.0778198
6.387;-0.0769043
6.388;-0.0756836
6.389;-0.0744629
6.39;-0.072937
6.391;-0.0714111
6.392;-0.0698853
6.393;-0.0686646
6.394;-0.0671387
6.395;-0.0656128
6.396;-0.0637817
6.397;-0.062561
6.398;-0.0613403
6.399;-0.06073
6.4;-0.06073
6.401;-0.06073
6.402;-0.0610352
6.403;-0.0616455
6.404;-0.0622559
6.405;-0.0634766
6.406;-0.0646973
6.407;-0.0662231
6.408;-0.0680542
6.409;-0.0701904
6.41;-0.0723267
6.411;-0.0744629
6.412;-0.0762939
6.413;-0.0778198
6.414;-0.0790405
6.415;-0.0799561
6.416;-0.0805664
6.417;-0.0808716
6.418;-0.0811768
6.419;-0.0814819
6.42;-0.0814819
6.421;-0.0811768
6.422;-0.0802612
6.423;-0.0790405
6.424;-0.0772095
6.425;-0.0744629
6.426;-0.0717163
6.427;-0.0689697
6.428;-0.0662231
6.429;-0.0643921
6.43;-0.0628662
6.431;-0.0622559
6.432;-0.0616455
6.433;-0.0616455
6.434;-0.0619507
6.435;-0.0619507
6.436;-0.0622559
6.437;-0.0622559
6.438;-0.0622559
6.439;-0.062561
6.44;-0.0628662
6.441;-0.0637817
6.442;-0.0650024
6.443;-0.065918
6.444;-0.0668335
6.445;-0.067749
6.446;-0.0683594
6.447;-0.0686646
6.448;-0.0692749
6.449;-0.0692749
6.45;-0.0686646
6.451;-0.0680542
6.452;-0.0671387
6.453;-0.0662231
6.454;-0.0656128
6.455;-0.0653076
6.456;-0.0650024
6.457;-0.0646973
6.458;-0.0643921
6.459;-0.0640869
6.46;-0.0637817
6.461;-0.0640869
6.462;-0.0643921
6.463;-0.0653076
6.464;-0.0662231
6.465;-0.0668335
6.466;-0.0671387
6.467;-0.0671387
6.468;-0.0668335
6.469;-0.0665283
6.47;-0.0665283
6.471;-0.0671387
6.472;-0.067749
6.473;-0.0683594
6.474;-0.0692749
6.475;-0.0701904
6.476;-0.0708008
6.477;-0.0714111
6.478;-0.0717163
6.479;-0.0717163
6.48;-0.0714111
6.481;-0.071106
6.482;-0.0708008
6.483;-0.0701904
6.484;-0.0698853
6.485;-0.0695801
6.486;-0.0695801
6.487;-0.0698853
6.488;-0.0701904
6.489;-0.0701904
6.49;-0.0704956
6.491;-0.0704956
6.492;-0.0704956
6.493;-0.071106
6.494;-0.0714111
6.495;-0.0720215
6.496;-0.0723267
6.497;-0.0726318
6.498;-0.0726318
6.499;-0.0726318
6.5;-0.0726318
6.501;-0.0726318
6.502;-0.072937
6.503;-0.0732422
6.504;-0.0732422
6.505;-0.0732422
6.506;-0.0732422
6.507;-0.072937
6.508;-0.0723267
6.509;-0.071106
6.51;-0.0698853
6.511;-0.0686646
6.512;-0.067749
6.513;-0.0668335
6.514;-0.0662231
6.515;-0.0656128
6.516;-0.0653076
6.517;-0.0646973
6.518;-0.0640869
6.519;-0.0631714
6.52;-0.0622559
6.521;-0.0616455
6.522;-0.0613403
6.523;-0.0613403
6.524;-0.0619507
6.525;-0.062561
6.526;-0.0631714
6.527;-0.0640869
6.528;-0.0650024
6.529;-0.065918
6.53;-0.0665283
6.531;-0.0674438
6.532;-0.067749
6.533;-0.0680542
6.534;-0.0683594
6.535;-0.0686646
6.536;-0.0689697
6.537;-0.0689697
6.538;-0.0689697
6.539;-0.0683594
6.54;-0.0674438
6.541;-0.065918
6.542;-0.0643921
6.543;-0.0631714
6.544;-0.0619507
6.545;-0.0613403
6.546;-0.0610352
6.547;-0.0610352
6.548;-0.0616455
6.549;-0.0628662
6.55;-0.0637817
6.551;-0.0650024
6.552;-0.065918
6.553;-0.0671387
6.554;-0.0683594
6.555;-0.0692749
6.556;-0.0698853
6.557;-0.0704956
6.558;-0.0714111
6.559;-0.0720215
6.56;-0.0726318
6.561;-0.0732422
6.562;-0.0738525
6.563;-0.0738525
6.564;-0.0735474
6.565;-0.072937
6.566;-0.0720215
6.567;-0.0714111
6.568;-0.0708008
6.569;-0.0698853
6.57;-0.0686646
6.571;-0.0674438
6.572;-0.065918
6.573;-0.0643921
6.574;-0.0631714
6.575;-0.0622559
6.576;-0.0619507
6.577;-0.0622559
6.578;-0.0628662
6.579;-0.0637817
6.58;-0.0646973
6.581;-0.065918
6.582;-0.0668335
6.583;-0.067749
6.584;-0.0683594
6.585;-0.0689697
6.586;-0.0698853
6.587;-0.0704956
6.588;-0.0714111
6.589;-0.0723267
6.59;-0.0735474
6.591;-0.0744629
6.592;-0.0747681
6.593;-0.0747681
6.594;-0.0744629
6.595;-0.0741577
6.596;-0.0735474
6.597;-0.0732422
6.598;-0.0732422
6.599;-0.072937
6.6;-0.0723267
6.601;-0.0720215
6.602;-0.0714111
6.603;-0.071106
6.604;-0.0704956
6.605;-0.0698853
6.606;-0.0695801
6.607;-0.0698853
6.608;-0.0704956
6.609;-0.071106
6.61;-0.071106
6.611;-0.0708008
6.612;-0.0701904
6.613;-0.0698853
6.614;-0.0692749
6.615;-0.0689697
6.616;-0.0686646
6.617;-0.0683594
6.618;-0.067749
6.619;-0.0671387
6.62;-0.0662231
6.621;-0.0656128
6.622;-0.0650024
6.623;-0.0650024
6.624;-0.0653076
6.625;-0.0656128
6.626;-0.065918
6.627;-0.0662231
6.628;-0.0662231
6.629;-0.065918
6.63;-0.065918
6.631;-0.065918
6.632;-0.0662231
6.633;-0.0665283
6.634;-0.0668335
6.635;-0.0674438
6.636;-0.0680542
6.637;-0.0686646
6.638;-0.0692749
6.639;-0.0701904
6.64;-0.0708008
6.641;-0.0714111
6.642;-0.0720215
6.643;-0.0720215
6.644;-0.0717163
6.645;-0.071106
6.646;-0.0708008
6.647;-0.0701904
6.648;-0.0698853
6.649;-0.0695801
6.65;-0.0695801
6.651;-0.0698853
6.652;-0.0704956
6.653;-0.0704956
6.654;-0.0695801
6.655;-0.0680542
6.656;-0.065918
6.657;-0.0643921
6.658;-0.0634766
6.659;-0.0631714
6.66;-0.0628662
6.661;-0.062561
6.662;-0.0622559
6.663;-0.0616455
6.664;-0.06073
6.665;-0.0598145
6.666;-0.0585938
6.667;-0.0576782
6.668;-0.0570679
6.669;-0.0564575
6.67;-0.0558472
6.671;-0.055542
6.672;-0.055542
6.673;-0.0552368
6.674;-0.0549316
6.675;-0.0546265
6.676;-0.0543213
6.677;-0.0537109
6.678;-0.0531006
6.679;-0.0524902
6.68;-0.0515747
6.681;-0.0500488
6.682;-0.0473022
6.683;-0.0439453
6.684;-0.0402832
6.685;-0.0363159
6.686;-0.0323486
6.687;-0.0289917
6.688;-0.0259399
6.689;-0.0231934
6.69;-0.0210571
6.691;-0.0189209
6.692;-0.0170898
6.693;-0.0158691
6.694;-0.0143433
6.695;-0.0134277
6.696;-0.012207
6.697;-0.0119019
6.698;-0.0119019
6.699;-0.012207
6.7;-0.0128174
6.701;-0.0131226
6.702;-0.0137329
6.703;-0.0137329
6.704;-0.0140381
6.705;-0.0140381
6.706;-0.0134277
6.707;-0.0128174
6.708;-0.0109863
6.709;-0.00915527
6.71;-0.00671387
6.711;-0.00457764
6.712;-0.00274658
6.713;-0.000915527
6.714;0.000915527
6.715;0.00305176
6.716;0.00518799
6.717;0.00762939
6.718;0.00976562
6.719;0.0119019
6.72;0.0131226
6.721;0.0131226
6.722;0.0125122
6.723;0.0112915
6.724;0.00976562
6.725;0.00823975
6.726;0.00640869
6.727;0.00366211
6.728;0.000610352
6.729;-0.00274658
6.73;-0.00671387
6.731;-0.010376
6.732;-0.0140381
6.733;-0.0177002
6.734;-0.020752
6.735;-0.0238037
6.736;-0.0271606
6.737;-0.0305176
6.738;-0.0338745
6.739;-0.0372314
6.74;-0.0405884
6.741;-0.0439453
6.742;-0.0473022
6.743;-0.050354
6.744;-0.0531006
6.745;-0.0558472
6.746;-0.0579834
6.747;-0.0595093
6.748;-0.0610352
6.749;-0.062561
6.75;-0.0640869
6.751;-0.0653076
6.752;-0.0662231
6.753;-0.0665283
6.754;-0.0665283
6.755;-0.0665283
6.756;-0.0668335
6.757;-0.0674438
6.758;-0.0683594
6.759;-0.0695801
6.76;-0.0708008
6.761;-0.0720215
6.762;-0.072937
6.763;-0.0738525
6.764;-0.0747681
6.765;-0.0759888
6.766;-0.0765991
6.767;-0.0775146
6.768;-0.078125
6.769;-0.0790405
6.77;-0.0802612
6.771;-0.0811768
6.772;-0.0820923
6.773;-0.0830078
6.774;-0.0839233
6.775;-0.0845337
6.776;-0.0848389
6.777;-0.085144
6.778;-0.0854492
6.779;-0.0854492
6.78;-0.0848389
6.781;-0.0842285
6.782;-0.083313
6.783;-0.0820923
6.784;-0.0805664
6.785;-0.0793457
6.786;-0.0784302
6.787;-0.0775146
6.788;-0.0772095
6.789;-0.0765991
6.79;-0.0759888
6.791;-0.0756836
6.792;-0.0753784
6.793;-0.0750732
6.794;-0.0747681
6.795;-0.0747681
6.796;-0.0747681
6.797;-0.0747681
6.798;-0.0741577
6.799;-0.0732422
6.8;-0.0720215
6.801;-0.071106
6.802;-0.0708008
6.803;-0.071106
6.804;-0.0714111
6.805;-0.0720215
6.806;-0.0726318
6.807;-0.072937
6.808;-0.072937
6.809;-0.0726318
6.81;-0.0723267
6.811;-0.0720215
6.812;-0.0717163
6.813;-0.0714111
6.814;-0.0714111
6.815;-0.0714111
6.816;-0.0714111
6.817;-0.0720215
6.818;-0.0723267
6.819;-0.0726318
6.82;-0.072937
6.821;-0.072937
6.822;-0.0726318
6.823;-0.0714111
6.824;-0.0689697
6.825;-0.0653076
6.826;-0.0610352
6.827;-0.0558472
6.828;-0.0500488
6.829;-0.0436401
6.83;-0.0360107
6.831;-0.0271606
6.832;-0.0167847
6.833;-0.00457764
6.834;0.00915527
6.835;0.0241089
6.836;0.0402832
6.837;0.0579834
6.838;0.0765991
6.839;0.0961304
6.84;0.116577
6.841;0.137939
6.842;0.160828
6.843;0.185242
6.844;0.211792
6.845;0.241089
6.846;0.272827
6.847;0.307312
6.848;0.343933
6.849;0.38208
6.85;0.421753
6.851;0.461731
6.852;0.501099
6.853;0.538025
6.854;0.570984
6.855;0.597839
6.856;0.617981
6.857;0.631104
6.858;0.637207
6.859;0.635681
6.86;0.626526
6.861;0.609741
6.862;0.585938
6.863;0.55481
6.864;0.517578
6.865;0.474548
6.866;0.42572
6.867;0.372009
6.868;0.314331
6.869;0.252991
6.87;0.189209
6.871;0.124817
6.872;0.06073
6.873;-0.000915527
6.874;-0.0588989
6.875;-0.111694
6.876;-0.157776
6.877;-0.195923
6.878;-0.22583
6.879;-0.247498
6.88;-0.261536
6.881;-0.269165
6.882;-0.270996
6.883;-0.26825
6.884;-0.261536
6.885;-0.252075
