0;-0.03479
0.001;-0.083313
0.002;-0.1297
0.003;-0.172424
0.004;-0.210876
0.005;-0.243835
0.006;-0.270691
0.007;-0.291443
0.008;-0.305481
0.009;-0.313416
0.01;-0.314636
0.011;-0.309753
0.012;-0.299683
0.013;-0.285034
0.014;-0.266724
0.015;-0.245361
0.016;-0.221863
0.017;-0.197754
0.018;-0.173035
0.019;-0.148621
0.02;-0.125427
0.021;-0.10437
0.022;-0.085144
0.023;-0.0683594
0.024;-0.0540161
0.025;-0.0418091
0.026;-0.0320435
0.027;-0.0247192
0.028;-0.0192261
0.029;-0.0158691
0.03;-0.0137329
0.031;-0.0128174
0.032;-0.0134277
0.033;-0.0146484
0.034;-0.0167847
0.035;-0.0189209
0.036;-0.0210571
0.037;-0.0228882
0.038;-0.0247192
0.039;-0.0262451
0.04;-0.027771
0.041;-0.0292969
0.042;-0.0302124
0.043;-0.0302124
0.044;-0.0296021
0.045;-0.0283813
0.046;-0.0268555
0.047;-0.0250244
0.048;-0.0228882
0.049;-0.020752
0.05;-0.0180054
0.051;-0.015564
0.052;-0.0131226
0.053;-0.010376
0.054;-0.00793457
0.055;-0.00549316
0.056;-0.00244141
0.057;0.000305176
0.058;0.00335693
0.059;0.00610352
0.06;0.00854492
0.061;0.010376
0.062;0.0115967
0.063;0.0128174
0.064;0.0134277
0.065;0.0134277
0.066;0.0128174
0.067;0.0119019
0.068;0.0109863
0.069;0.00976562
0.07;0.00823975
0.071;0.00671387
0.072;0.00518799
0.073;0.00396729
0.074;0.00274658
0.075;0.00183105
0.076;0.0012207
0.077;0.0012207
0.078;0.00152588
0.079;0.00213623
0.08;0.00274658
0.081;0.00366211
0.082;0.00457764
0.083;0.00579834
0.084;0.00701904
0.085;0.00793457
0.086;0.00915527
0.087;0.0100708
0.088;0.0112915
0.089;0.0134277
0.09;0.0158691
0.091;0.0186157
0.092;0.0213623
0.093;0.0231934
0.094;0.0244141
0.095;0.0253296
0.096;0.0256348
0.097;0.0259399
0.098;0.0259399
0.099;0.0259399
0.1;0.0259399
0.101;0.0259399
0.102;0.0259399
0.103;0.0262451
0.104;0.0262451
0.105;0.0259399
0.106;0.0253296
0.107;0.0247192
0.108;0.0244141
0.109;0.0244141
0.11;0.0244141
0.111;0.0244141
0.112;0.0241089
0.113;0.0234985
0.114;0.0228882
0.115;0.0222778
0.116;0.0216675
0.117;0.020752
0.118;0.0198364
0.119;0.0186157
0.12;0.0177002
0.121;0.0170898
0.122;0.0170898
0.123;0.0170898
0.124;0.0177002
0.125;0.0183105
0.126;0.0189209
0.127;0.0198364
0.128;0.020752
0.129;0.0216675
0.13;0.0222778
0.131;0.0231934
0.132;0.0238037
0.133;0.0247192
0.134;0.0259399
0.135;0.0274658
0.136;0.0286865
0.137;0.0305176
0.138;0.0323486
0.139;0.0338745
0.14;0.0354004
0.141;0.0363159
0.142;0.0363159
0.143;0.0354004
0.144;0.0341797
0.145;0.0326538
0.146;0.0314331
0.147;0.0305176
0.148;0.0296021
0.149;0.0289917
0.15;0.0280762
0.151;0.0268555
0.152;0.0256348
0.153;0.0241089
0.154;0.0228882
0.155;0.0219727
0.156;0.0213623
0.157;0.020752
0.158;0.0204468
0.159;0.0201416
0.16;0.0201416
0.161;0.0201416
0.162;0.0201416
0.163;0.020752
0.164;0.0213623
0.165;0.0222778
0.166;0.022583
0.167;0.0228882
0.168;0.0231934
0.169;0.0234985
0.17;0.0238037
0.171;0.0244141
0.172;0.0247192
0.173;0.0250244
0.174;0.0250244
0.175;0.0250244
0.176;0.0244141
0.177;0.0238037
0.178;0.0231934
0.179;0.022583
0.18;0.0222778
0.181;0.022583
0.182;0.0234985
0.183;0.0247192
0.184;0.0265503
0.185;0.0280762
0.186;0.0296021
0.187;0.0305176
0.188;0.0314331
0.189;0.0317383
0.19;0.0320435
0.191;0.0320435
0.192;0.0320435
0.193;0.0314331
0.194;0.0311279
0.195;0.0305176
0.196;0.0302124
0.197;0.0302124
0.198;0.0308228
0.199;0.0317383
0.2;0.032959
0.201;0.0335693
0.202;0.0344849
0.203;0.0357056
0.204;0.0372314
0.205;0.0393677
0.206;0.0415039
0.207;0.0436401
0.208;0.0457764
0.209;0.0476074
0.21;0.0491333
0.211;0.050354
0.212;0.0515747
0.213;0.0527954
0.214;0.0540161
0.215;0.0552368
0.216;0.0558472
0.217;0.0558472
0.218;0.055542
0.219;0.0543213
0.22;0.0531006
0.221;0.0512695
0.222;0.0494385
0.223;0.0469971
0.224;0.0445557
0.225;0.0411987
0.226;0.0375366
0.227;0.0335693
0.228;0.0302124
0.229;0.0271606
0.23;0.0247192
0.231;0.0222778
0.232;0.0201416
0.233;0.0180054
0.234;0.0158691
0.235;0.0143433
0.236;0.0131226
0.237;0.012207
0.238;0.0119019
0.239;0.0115967
0.24;0.0112915
0.241;0.0109863
0.242;0.0100708
0.243;0.0088501
0.244;0.00701904
0.245;0.00488281
0.246;0.00274658
0.247;0.000915527
0.248;-0.000915527
0.249;-0.00244141
0.25;-0.00396729
0.251;-0.00549316
0.252;-0.00762939
0.253;-0.0100708
0.254;-0.0128174
0.255;-0.0164795
0.256;-0.0201416
0.257;-0.0244141
0.258;-0.0289917
0.259;-0.0332642
0.26;-0.0369263
0.261;-0.039978
0.262;-0.0427246
0.263;-0.045166
0.264;-0.0476074
0.265;-0.0497437
0.266;-0.0518799
0.267;-0.0537109
0.268;-0.0549316
0.269;-0.0558472
0.27;-0.0558472
0.271;-0.055542
0.272;-0.0546265
0.273;-0.0540161
0.274;-0.0531006
0.275;-0.0521851
0.276;-0.0518799
0.277;-0.0515747
0.278;-0.0512695
0.279;-0.0509644
0.28;-0.0506592
0.281;-0.050354
0.282;-0.0506592
0.283;-0.0512695
0.284;-0.0518799
0.285;-0.0524902
0.286;-0.0531006
0.287;-0.0537109
0.288;-0.0543213
0.289;-0.0546265
0.29;-0.0549316
0.291;-0.0558472
0.292;-0.057373
0.293;-0.0588989
0.294;-0.0598145
0.295;-0.0604248
0.296;-0.0604248
0.297;-0.0598145
0.298;-0.0585938
0.299;-0.057373
0.3;-0.055542
0.301;-0.0537109
0.302;-0.0509644
0.303;-0.0479126
0.304;-0.0448608
0.305;-0.0424194
0.306;-0.039978
0.307;-0.0378418
0.308;-0.0357056
0.309;-0.0335693
0.31;-0.0311279
0.311;-0.0286865
0.312;-0.0268555
0.313;-0.0247192
0.314;-0.0228882
0.315;-0.0213623
0.316;-0.0198364
0.317;-0.0186157
0.318;-0.017395
0.319;-0.0167847
0.32;-0.0161743
0.321;-0.0161743
0.322;-0.0167847
0.323;-0.017395
0.324;-0.0186157
0.325;-0.0198364
0.326;-0.020752
0.327;-0.0216675
0.328;-0.0219727
0.329;-0.0219727
0.33;-0.0222778
0.331;-0.0228882
0.332;-0.0238037
0.333;-0.0250244
0.334;-0.0265503
0.335;-0.027771
0.336;-0.0292969
0.337;-0.0308228
0.338;-0.0326538
0.339;-0.03479
0.34;-0.0369263
0.341;-0.0387573
0.342;-0.0405884
0.343;-0.0411987
0.344;-0.0415039
0.345;-0.0411987
0.346;-0.0405884
0.347;-0.039978
0.348;-0.0393677
0.349;-0.0390625
0.35;-0.0387573
0.351;-0.0387573
0.352;-0.0384521
0.353;-0.0378418
0.354;-0.0369263
0.355;-0.0360107
0.356;-0.0344849
0.357;-0.0326538
0.358;-0.0311279
0.359;-0.0299072
0.36;-0.0286865
0.361;-0.0280762
0.362;-0.0274658
0.363;-0.0271606
0.364;-0.0265503
0.365;-0.0259399
0.366;-0.0259399
0.367;-0.0262451
0.368;-0.0274658
0.369;-0.0289917
0.37;-0.0305176
0.371;-0.0317383
0.372;-0.0323486
0.373;-0.0317383
0.374;-0.0299072
0.375;-0.027771
0.376;-0.0250244
0.377;-0.0222778
0.378;-0.0201416
0.379;-0.0186157
0.38;-0.017395
0.381;-0.0167847
0.382;-0.0161743
0.383;-0.0152588
0.384;-0.0143433
0.385;-0.0134277
0.386;-0.0131226
0.387;-0.0128174
0.388;-0.0128174
0.389;-0.0128174
0.39;-0.0128174
0.391;-0.0131226
0.392;-0.0137329
0.393;-0.0146484
0.394;-0.0161743
0.395;-0.0177002
0.396;-0.0195312
0.397;-0.0210571
0.398;-0.022583
0.399;-0.0241089
0.4;-0.0256348
0.401;-0.0265503
0.402;-0.0268555
0.403;-0.0268555
0.404;-0.0265503
0.405;-0.0259399
0.406;-0.0253296
0.407;-0.0247192
0.408;-0.0244141
0.409;-0.0244141
0.41;-0.0244141
0.411;-0.0241089
0.412;-0.0238037
0.413;-0.0231934
0.414;-0.0222778
0.415;-0.0213623
0.416;-0.0201416
0.417;-0.0192261
0.418;-0.0186157
0.419;-0.0189209
0.42;-0.0195312
0.421;-0.020752
0.422;-0.0222778
0.423;-0.0234985
0.424;-0.0241089
0.425;-0.0241089
0.426;-0.0234985
0.427;-0.0231934
0.428;-0.022583
0.429;-0.022583
0.43;-0.0222778
0.431;-0.022583
0.432;-0.022583
0.433;-0.0228882
0.434;-0.0238037
0.435;-0.0247192
0.436;-0.0256348
0.437;-0.0265503
0.438;-0.0271606
0.439;-0.0271606
0.44;-0.0271606
0.441;-0.0265503
0.442;-0.0259399
0.443;-0.0250244
0.444;-0.0244141
0.445;-0.0238037
0.446;-0.0234985
0.447;-0.0231934
0.448;-0.0228882
0.449;-0.022583
0.45;-0.0219727
0.451;-0.020752
0.452;-0.0198364
0.453;-0.0183105
0.454;-0.0170898
0.455;-0.0152588
0.456;-0.0131226
0.457;-0.0112915
0.458;-0.00915527
0.459;-0.00793457
0.46;-0.00701904
0.461;-0.00701904
0.462;-0.00793457
0.463;-0.00915527
0.464;-0.0106812
0.465;-0.0119019
0.466;-0.0125122
0.467;-0.0128174
0.468;-0.0128174
0.469;-0.0128174
0.47;-0.0134277
0.471;-0.0146484
0.472;-0.0158691
0.473;-0.017395
0.474;-0.0186157
0.475;-0.0198364
0.476;-0.020752
0.477;-0.0213623
0.478;-0.0219727
0.479;-0.0222778
0.48;-0.0222778
0.481;-0.0213623
0.482;-0.0204468
0.483;-0.0195312
0.484;-0.0189209
0.485;-0.0186157
0.486;-0.0180054
0.487;-0.0170898
0.488;-0.0158691
0.489;-0.0143433
0.49;-0.0125122
0.491;-0.0109863
0.492;-0.00976562
0.493;-0.00915527
0.494;-0.0088501
0.495;-0.00915527
0.496;-0.0100708
0.497;-0.0109863
0.498;-0.012207
0.499;-0.0134277
0.5;-0.0146484
0.501;-0.015564
0.502;-0.0164795
0.503;-0.017395
0.504;-0.0183105
0.505;-0.0192261
0.506;-0.0201416
0.507;-0.020752
0.508;-0.020752
0.509;-0.0210571
0.51;-0.020752
0.511;-0.0204468
0.512;-0.0201416
0.513;-0.0195312
0.514;-0.0189209
0.515;-0.0180054
0.516;-0.0170898
0.517;-0.015564
0.518;-0.0134277
0.519;-0.0109863
0.52;-0.00823975
0.521;-0.00549316
0.522;-0.00305176
0.523;-0.000915527
0.524;0.000610352
0.525;0.0012207
0.526;0.000915527
0.527;0.000610352
0.528;0.000305176
0.529;0
0.53;-0.000305176
0.531;-0.000610352
0.532;-0.000915527
0.533;-0.0012207
0.534;-0.00152588
0.535;-0.00244141
0.536;-0.00335693
0.537;-0.00457764
0.538;-0.00579834
0.539;-0.00701904
0.54;-0.00762939
0.541;-0.00732422
0.542;-0.00640869
0.543;-0.00488281
0.544;-0.00366211
0.545;-0.00213623
0.546;-0.0012207
0.547;-0.000305176
0.548;0.000610352
0.549;0.00152588
0.55;0.00244141
0.551;0.00366211
0.552;0.00488281
0.553;0.00610352
0.554;0.00732422
0.555;0.00823975
0.556;0.0088501
0.557;0.00946045
0.558;0.00946045
0.559;0.0100708
0.56;0.0109863
0.561;0.0119019
0.562;0.0128174
0.563;0.0134277
0.564;0.0137329
0.565;0.0137329
0.566;0.0131226
0.567;0.0125122
0.568;0.0119019
0.569;0.0112915
0.57;0.0106812
0.571;0.010376
0.572;0.010376
0.573;0.0106812
0.574;0.0112915
0.575;0.012207
0.576;0.0125122
0.577;0.0128174
0.578;0.0128174
0.579;0.0125122
0.58;0.0128174
0.581;0.0131226
0.582;0.0140381
0.583;0.0149536
0.584;0.0161743
0.585;0.0170898
0.586;0.0177002
0.587;0.0180054
0.588;0.0180054
0.589;0.0180054
0.59;0.0180054
0.591;0.0183105
0.592;0.0189209
0.593;0.0195312
0.594;0.0198364
0.595;0.0201416
0.596;0.0195312
0.597;0.0183105
0.598;0.0167847
0.599;0.0152588
0.6;0.0140381
0.601;0.0134277
0.602;0.0134277
0.603;0.0140381
0.604;0.0149536
0.605;0.0161743
0.606;0.017395
0.607;0.0183105
0.608;0.0192261
0.609;0.0198364
0.61;0.0204468
0.611;0.0213623
0.612;0.0222778
0.613;0.0238037
0.614;0.0256348
0.615;0.027771
0.616;0.0296021
0.617;0.0311279
0.618;0.0317383
0.619;0.0320435
0.62;0.0320435
0.621;0.0317383
0.622;0.0317383
0.623;0.0323486
0.624;0.032959
0.625;0.0338745
0.626;0.0344849
0.627;0.03479
0.628;0.0354004
0.629;0.0360107
0.63;0.0369263
0.631;0.0375366
0.632;0.0384521
0.633;0.0393677
0.634;0.0402832
0.635;0.0408936
0.636;0.0415039
0.637;0.0418091
0.638;0.0418091
0.639;0.0418091
0.64;0.0415039
0.641;0.0415039
0.642;0.0421143
0.643;0.0424194
0.644;0.0427246
0.645;0.0430298
0.646;0.043335
0.647;0.0427246
0.648;0.0418091
0.649;0.0408936
0.65;0.0396729
0.651;0.038147
0.652;0.0366211
0.653;0.0350952
0.654;0.0335693
0.655;0.0323486
0.656;0.0311279
0.657;0.0296021
0.658;0.0283813
0.659;0.0265503
0.66;0.0244141
0.661;0.0216675
0.662;0.0192261
0.663;0.0164795
0.664;0.0137329
0.665;0.0109863
0.666;0.00823975
0.667;0.00579834
0.668;0.00335693
0.669;0.00152588
0.67;0
0.671;-0.0012207
0.672;-0.00244141
0.673;-0.00335693
0.674;-0.00396729
0.675;-0.00488281
0.676;-0.00549316
0.677;-0.00640869
0.678;-0.00732422
0.679;-0.00854492
0.68;-0.00946045
0.681;-0.0100708
0.682;-0.0100708
0.683;-0.0100708
0.684;-0.0100708
0.685;-0.010376
0.686;-0.0109863
0.687;-0.012207
0.688;-0.0137329
0.689;-0.0161743
0.69;-0.0186157
0.691;-0.0213623
0.692;-0.0234985
0.693;-0.0250244
0.694;-0.0256348
0.695;-0.0253296
0.696;-0.0241089
0.697;-0.022583
0.698;-0.0204468
0.699;-0.0186157
0.7;-0.0167847
0.701;-0.0152588
0.702;-0.0137329
0.703;-0.0125122
0.704;-0.0109863
0.705;-0.00946045
0.706;-0.00793457
0.707;-0.00640869
0.708;-0.00518799
0.709;-0.00427246
0.71;-0.00366211
0.711;-0.00305176
0.712;-0.00274658
0.713;-0.00274658
0.714;-0.00244141
0.715;-0.00274658
0.716;-0.00335693
0.717;-0.00457764
0.718;-0.00610352
0.719;-0.00762939
0.72;-0.00946045
0.721;-0.0109863
0.722;-0.0128174
0.723;-0.0149536
0.724;-0.0170898
0.725;-0.0189209
0.726;-0.0201416
0.727;-0.020752
0.728;-0.0210571
0.729;-0.0210571
0.73;-0.0210571
0.731;-0.0210571
0.732;-0.0213623
0.733;-0.0216675
0.734;-0.0219727
0.735;-0.022583
0.736;-0.0238037
0.737;-0.0250244
0.738;-0.0265503
0.739;-0.027771
0.74;-0.0286865
0.741;-0.0292969
0.742;-0.0296021
0.743;-0.0296021
0.744;-0.0286865
0.745;-0.0271606
0.746;-0.0244141
0.747;-0.0210571
0.748;-0.017395
0.749;-0.0128174
0.75;-0.00793457
0.751;-0.00183105
0.752;0.00518799
0.753;0.0131226
0.754;0.0222778
0.755;0.0326538
0.756;0.0439453
0.757;0.0567627
0.758;0.0704956
0.759;0.0854492
0.76;0.101013
0.761;0.117493
0.762;0.134583
0.763;0.152283
0.764;0.170898
0.765;0.189819
0.766;0.209045
0.767;0.229187
0.768;0.249634
0.769;0.270386
0.77;0.291443
0.771;0.311279
0.772;0.3302
0.773;0.346985
0.774;0.360718
0.775;0.369873
0.776;0.37384
0.777;0.371094
0.778;0.361938
0.779;0.346069
0.78;0.323792
0.781;0.296326
0.782;0.264587
0.783;0.228882
0.784;0.189514
0.785;0.146484
0.786;0.100403
0.787;0.0515747
0.788;0.0012207
0.789;-0.0497437
0.79;-0.0997925
0.791;-0.1474
0.792;-0.192261
0.793;-0.232544
0.794;-0.26825
0.795;-0.297546
0.796;-0.320435
0.797;-0.336609
0.798;-0.345764
0.799;-0.348511
0.8;-0.345154
0.801;-0.335693
0.802;-0.321045
0.803;-0.302124
0.804;-0.280151
0.805;-0.255737
0.806;-0.230713
0.807;-0.205078
0.808;-0.180359
0.809;-0.15686
0.81;-0.134888
0.811;-0.115662
0.812;-0.0985718
0.813;-0.0839233
0.814;-0.0714111
0.815;-0.0613403
0.816;-0.0537109
0.817;-0.0482178
0.818;-0.045166
0.819;-0.0439453
0.82;-0.0439453
0.821;-0.0448608
0.822;-0.0463867
0.823;-0.0485229
0.824;-0.050354
0.825;-0.0518799
0.826;-0.0527954
0.827;-0.0534058
0.828;-0.0534058
0.829;-0.0531006
0.83;-0.0524902
0.831;-0.0518799
0.832;-0.0506592
0.833;-0.0494385
0.834;-0.0476074
0.835;-0.0457764
0.836;-0.0430298
0.837;-0.0405884
0.838;-0.0378418
0.839;-0.0354004
0.84;-0.0332642
0.841;-0.0311279
0.842;-0.0296021
0.843;-0.0280762
0.844;-0.0265503
0.845;-0.0253296
0.846;-0.0238037
0.847;-0.0222778
0.848;-0.0210571
0.849;-0.0198364
0.85;-0.0192261
0.851;-0.0183105
0.852;-0.0177002
0.853;-0.0167847
0.854;-0.0158691
0.855;-0.0149536
0.856;-0.0146484
0.857;-0.0149536
0.858;-0.0152588
0.859;-0.0158691
0.86;-0.0164795
0.861;-0.0167847
0.862;-0.0170898
0.863;-0.017395
0.864;-0.0177002
0.865;-0.0177002
0.866;-0.0177002
0.867;-0.0177002
0.868;-0.0177002
0.869;-0.0177002
0.87;-0.017395
0.871;-0.0167847
0.872;-0.0158691
0.873;-0.0146484
0.874;-0.0131226
0.875;-0.0115967
0.876;-0.0100708
0.877;-0.00854492
0.878;-0.00640869
0.879;-0.00427246
0.88;-0.00183105
0.881;0.000610352
0.882;0.00305176
0.883;0.00518799
0.884;0.00671387
0.885;0.00823975
0.886;0.00915527
0.887;0.00915527
0.888;0.00854492
0.889;0.00732422
0.89;0.00640869
0.891;0.00579834
0.892;0.00518799
0.893;0.00427246
0.894;0.00335693
0.895;0.00213623
0.896;0.000610352
0.897;-0.0012207
0.898;-0.00274658
0.899;-0.00427246
0.9;-0.00549316
0.901;-0.00610352
0.902;-0.00640869
0.903;-0.00610352
0.904;-0.00549316
0.905;-0.00457764
0.906;-0.00305176
0.907;-0.00183105
0.908;-0.000610352
0.909;0.000610352
0.91;0.00213623
0.911;0.00366211
0.912;0.00518799
0.913;0.00701904
0.914;0.0088501
0.915;0.0109863
0.916;0.0128174
0.917;0.0143433
0.918;0.0152588
0.919;0.0158691
0.92;0.0164795
0.921;0.0164795
0.922;0.0161743
0.923;0.015564
0.924;0.0152588
0.925;0.0143433
0.926;0.0134277
0.927;0.0125122
0.928;0.0109863
0.929;0.0100708
0.93;0.00915527
0.931;0.0088501
0.932;0.00915527
0.933;0.0100708
0.934;0.0106812
0.935;0.0115967
0.936;0.012207
0.937;0.0128174
0.938;0.0140381
0.939;0.0158691
0.94;0.0183105
0.941;0.0213623
0.942;0.0247192
0.943;0.027771
0.944;0.0308228
0.945;0.0335693
0.946;0.0366211
0.947;0.0396729
0.948;0.0424194
0.949;0.0448608
0.95;0.0466919
0.951;0.0479126
0.952;0.0482178
0.953;0.0476074
0.954;0.0463867
0.955;0.0445557
0.956;0.0421143
0.957;0.039978
0.958;0.0378418
0.959;0.0363159
0.96;0.0357056
0.961;0.0360107
0.962;0.0369263
0.963;0.038147
0.964;0.0396729
0.965;0.0408936
0.966;0.0421143
0.967;0.0436401
0.968;0.0457764
0.969;0.0488281
0.97;0.0527954
0.971;0.057373
0.972;0.0622559
0.973;0.0674438
0.974;0.0720215
0.975;0.0765991
0.976;0.0802612
0.977;0.0830078
0.978;0.085144
0.979;0.0866699
0.98;0.0869751
0.981;0.0869751
0.982;0.0863647
0.983;0.0854492
0.984;0.0839233
0.985;0.0823975
0.986;0.0808716
0.987;0.0790405
0.988;0.0769043
0.989;0.0750732
0.99;0.072937
0.991;0.071106
0.992;0.0695801
0.993;0.0686646
0.994;0.0680542
0.995;0.0674438
0.996;0.0671387
0.997;0.0674438
0.998;0.0686646
0.999;0.0701904
1;0.0720215
1.001;0.0738525
1.002;0.0756836
1.003;0.0769043
1.004;0.078125
1.005;0.0793457
1.006;0.0802612
1.007;0.0811768
1.008;0.0817871
1.009;0.0820923
1.01;0.0814819
1.011;0.0802612
1.012;0.0787354
1.013;0.0765991
1.014;0.0741577
1.015;0.0717163
1.016;0.0695801
1.017;0.067749
1.018;0.0662231
1.019;0.0643921
1.02;0.0622559
1.021;0.0598145
1.022;0.0564575
1.023;0.0531006
1.024;0.0500488
1.025;0.0466919
1.026;0.0430298
1.027;0.0393677
1.028;0.0357056
1.029;0.0320435
1.03;0.0289917
1.031;0.0262451
1.032;0.0238037
1.033;0.0210571
1.034;0.0180054
1.035;0.0143433
1.036;0.010376
1.037;0.00579834
1.038;0.000915527
1.039;-0.00396729
1.04;-0.0088501
1.041;-0.0134277
1.042;-0.0177002
1.043;-0.0213623
1.044;-0.0250244
1.045;-0.0289917
1.046;-0.0332642
1.047;-0.0375366
1.048;-0.0424194
1.049;-0.0466919
1.05;-0.0509644
1.051;-0.0543213
1.052;-0.0576782
1.053;-0.06073
1.054;-0.0637817
1.055;-0.0662231
1.056;-0.0683594
1.057;-0.0698853
1.058;-0.0708008
1.059;-0.0714111
1.06;-0.0717163
1.061;-0.0723267
1.062;-0.0726318
1.063;-0.0735474
1.064;-0.0744629
1.065;-0.0753784
1.066;-0.0762939
1.067;-0.0772095
1.068;-0.0772095
1.069;-0.0772095
1.07;-0.0765991
1.071;-0.0756836
1.072;-0.0750732
1.073;-0.0747681
1.074;-0.0747681
1.075;-0.0750732
1.076;-0.0750732
1.077;-0.0753784
1.078;-0.0753784
1.079;-0.0750732
1.08;-0.0747681
1.081;-0.0744629
1.082;-0.0735474
1.083;-0.0726318
1.084;-0.0708008
1.085;-0.0692749
1.086;-0.0674438
1.087;-0.065918
1.088;-0.0637817
1.089;-0.0616455
1.09;-0.0598145
1.091;-0.0579834
1.092;-0.0567627
1.093;-0.0558472
1.094;-0.0549316
1.095;-0.0543213
1.096;-0.0540161
1.097;-0.0537109
1.098;-0.0531006
1.099;-0.0524902
1.1;-0.0518799
1.101;-0.0518799
1.102;-0.0515747
1.103;-0.0515747
1.104;-0.0515747
1.105;-0.0515747
1.106;-0.0515747
1.107;-0.0515747
1.108;-0.0515747
1.109;-0.0521851
1.11;-0.0527954
1.111;-0.0534058
1.112;-0.0540161
1.113;-0.0543213
1.114;-0.0549316
1.115;-0.0558472
1.116;-0.0564575
1.117;-0.0567627
1.118;-0.0567627
1.119;-0.0558472
1.12;-0.0552368
1.121;-0.0543213
1.122;-0.0534058
1.123;-0.0527954
1.124;-0.0531006
1.125;-0.0537109
1.126;-0.0543213
1.127;-0.0546265
1.128;-0.0552368
1.129;-0.055542
1.13;-0.055542
1.131;-0.0552368
1.132;-0.0546265
1.133;-0.0537109
1.134;-0.0527954
1.135;-0.0515747
1.136;-0.050354
1.137;-0.0494385
1.138;-0.0488281
1.139;-0.0485229
1.14;-0.0488281
1.141;-0.0488281
1.142;-0.0488281
1.143;-0.0485229
1.144;-0.0482178
1.145;-0.0476074
1.146;-0.0463867
1.147;-0.0454712
1.148;-0.0442505
1.149;-0.0430298
1.15;-0.0418091
1.151;-0.0405884
1.152;-0.0390625
1.153;-0.0378418
1.154;-0.0369263
1.155;-0.0363159
1.156;-0.0360107
1.157;-0.0357056
1.158;-0.0350952
1.159;-0.0341797
1.16;-0.032959
1.161;-0.0317383
1.162;-0.0302124
1.163;-0.0289917
1.164;-0.027771
1.165;-0.0268555
1.166;-0.0259399
1.167;-0.0256348
1.168;-0.0253296
1.169;-0.0250244
1.17;-0.0247192
1.171;-0.0244141
1.172;-0.0238037
1.173;-0.0231934
1.174;-0.022583
1.175;-0.022583
1.176;-0.0228882
1.177;-0.0228882
1.178;-0.0228882
1.179;-0.0222778
1.18;-0.0219727
1.181;-0.0219727
1.182;-0.0222778
1.183;-0.0231934
1.184;-0.0241089
1.185;-0.0253296
1.186;-0.0265503
1.187;-0.0271606
1.188;-0.0280762
1.189;-0.0286865
1.19;-0.0289917
1.191;-0.0289917
1.192;-0.0286865
1.193;-0.0280762
1.194;-0.0274658
1.195;-0.0265503
1.196;-0.0253296
1.197;-0.0244141
1.198;-0.0231934
1.199;-0.0216675
1.2;-0.0198364
1.201;-0.0180054
1.202;-0.0161743
1.203;-0.0143433
1.204;-0.0128174
1.205;-0.0109863
1.206;-0.00915527
1.207;-0.00701904
1.208;-0.00518799
1.209;-0.00335693
1.21;-0.00213623
1.211;-0.0012207
1.212;-0.000915527
1.213;-0.0012207
1.214;-0.00152588
1.215;-0.00213623
1.216;-0.00274658
1.217;-0.00427246
1.218;-0.00579834
1.219;-0.00762939
1.22;-0.00976562
1.221;-0.0115967
1.222;-0.0134277
1.223;-0.0149536
1.224;-0.0161743
1.225;-0.0167847
1.226;-0.017395
1.227;-0.0177002
1.228;-0.0177002
1.229;-0.0180054
1.23;-0.0180054
1.231;-0.0180054
1.232;-0.0180054
1.233;-0.017395
1.234;-0.0167847
1.235;-0.0161743
1.236;-0.0152588
1.237;-0.0143433
1.238;-0.0131226
1.239;-0.012207
1.24;-0.0109863
1.241;-0.00976562
1.242;-0.00854492
1.243;-0.00762939
1.244;-0.00671387
1.245;-0.00640869
1.246;-0.00640869
1.247;-0.00701904
1.248;-0.00762939
1.249;-0.00854492
1.25;-0.00976562
1.251;-0.0106812
1.252;-0.0115967
1.253;-0.0125122
1.254;-0.0137329
1.255;-0.0149536
1.256;-0.0167847
1.257;-0.0183105
1.258;-0.0201416
1.259;-0.0216675
1.26;-0.0228882
1.261;-0.0234985
1.262;-0.0241089
1.263;-0.0247192
1.264;-0.0250244
1.265;-0.0253296
1.266;-0.0259399
1.267;-0.0262451
1.268;-0.0268555
1.269;-0.0274658
1.27;-0.0274658
1.271;-0.0265503
1.272;-0.0250244
1.273;-0.0234985
1.274;-0.0219727
1.275;-0.020752
1.276;-0.0198364
1.277;-0.0192261
1.278;-0.0186157
1.279;-0.0186157
1.28;-0.0189209
1.281;-0.0195312
1.282;-0.0204468
1.283;-0.0216675
1.284;-0.0228882
1.285;-0.0244141
1.286;-0.0253296
1.287;-0.0259399
1.288;-0.0259399
1.289;-0.0253296
1.29;-0.0247192
1.291;-0.0241089
1.292;-0.0241089
1.293;-0.0247192
1.294;-0.0259399
1.295;-0.0271606
1.296;-0.0280762
1.297;-0.0283813
1.298;-0.0283813
1.299;-0.027771
1.3;-0.0268555
1.301;-0.0259399
1.302;-0.0250244
1.303;-0.0241089
1.304;-0.0231934
1.305;-0.022583
1.306;-0.0222778
1.307;-0.022583
1.308;-0.022583
1.309;-0.0228882
1.31;-0.0228882
1.311;-0.022583
1.312;-0.0219727
1.313;-0.020752
1.314;-0.0195312
1.315;-0.0180054
1.316;-0.0164795
1.317;-0.0152588
1.318;-0.0146484
1.319;-0.0140381
1.32;-0.0134277
1.321;-0.0125122
1.322;-0.0115967
1.323;-0.0109863
1.324;-0.010376
1.325;-0.00976562
1.326;-0.00976562
1.327;-0.00946045
1.328;-0.00976562
1.329;-0.0100708
1.33;-0.0106812
1.331;-0.0115967
1.332;-0.0125122
1.333;-0.0131226
1.334;-0.0134277
1.335;-0.0134277
1.336;-0.0131226
1.337;-0.0131226
1.338;-0.0131226
1.339;-0.0134277
1.34;-0.0137329
1.341;-0.0140381
1.342;-0.0140381
1.343;-0.0137329
1.344;-0.0128174
1.345;-0.012207
1.346;-0.0109863
1.347;-0.0100708
1.348;-0.0088501
1.349;-0.00823975
1.35;-0.00793457
1.351;-0.00793457
1.352;-0.00762939
1.353;-0.00701904
1.354;-0.00579834
1.355;-0.00396729
1.356;-0.00183105
1.357;0.000915527
1.358;0.00396729
1.359;0.00671387
1.36;0.00946045
1.361;0.0115967
1.362;0.0131226
1.363;0.0143433
1.364;0.0152588
1.365;0.0161743
1.366;0.0164795
1.367;0.0170898
1.368;0.0177002
1.369;0.0180054
1.37;0.0183105
1.371;0.0180054
1.372;0.017395
1.373;0.0161743
1.374;0.0140381
1.375;0.0112915
1.376;0.00823975
1.377;0.00488281
1.378;0.00152588
1.379;-0.00183105
1.38;-0.00488281
1.381;-0.00732422
1.382;-0.00946045
1.383;-0.0112915
1.384;-0.0131226
1.385;-0.0149536
1.386;-0.0167847
1.387;-0.0186157
1.388;-0.020752
1.389;-0.022583
1.39;-0.0238037
1.391;-0.0250244
1.392;-0.0256348
1.393;-0.0259399
1.394;-0.0262451
1.395;-0.0262451
1.396;-0.0262451
1.397;-0.0265503
1.398;-0.0271606
1.399;-0.027771
1.4;-0.0286865
1.401;-0.0299072
1.402;-0.0311279
1.403;-0.0326538
1.404;-0.0338745
1.405;-0.03479
1.406;-0.0354004
1.407;-0.0357056
1.408;-0.0360107
1.409;-0.0369263
1.41;-0.0378418
1.411;-0.0393677
1.412;-0.0405884
1.413;-0.0415039
1.414;-0.0418091
1.415;-0.0418091
1.416;-0.0415039
1.417;-0.0408936
1.418;-0.0405884
1.419;-0.0402832
1.42;-0.039978
1.421;-0.039978
1.422;-0.0396729
1.423;-0.0393677
1.424;-0.0393677
1.425;-0.0390625
1.426;-0.0387573
1.427;-0.0387573
1.428;-0.0387573
1.429;-0.0390625
1.43;-0.039978
1.431;-0.0405884
1.432;-0.0415039
1.433;-0.0421143
1.434;-0.0421143
1.435;-0.0424194
1.436;-0.0424194
1.437;-0.0427246
1.438;-0.043335
1.439;-0.0436401
1.44;-0.0439453
1.441;-0.0442505
1.442;-0.0442505
1.443;-0.0445557
1.444;-0.0448608
1.445;-0.0448608
1.446;-0.0448608
1.447;-0.0445557
1.448;-0.0439453
1.449;-0.0430298
1.45;-0.0421143
1.451;-0.0405884
1.452;-0.0396729
1.453;-0.0390625
1.454;-0.0387573
1.455;-0.0384521
1.456;-0.0384521
1.457;-0.0384521
1.458;-0.038147
1.459;-0.0378418
1.46;-0.0372314
1.461;-0.0372314
1.462;-0.0372314
1.463;-0.0375366
1.464;-0.0372314
1.465;-0.0369263
1.466;-0.0360107
1.467;-0.0354004
1.468;-0.03479
1.469;-0.0344849
1.47;-0.03479
1.471;-0.0350952
1.472;-0.0354004
1.473;-0.0363159
1.474;-0.0372314
1.475;-0.0378418
1.476;-0.0387573
1.477;-0.0393677
1.478;-0.0396729
1.479;-0.0396729
1.48;-0.0393677
1.481;-0.0384521
1.482;-0.0366211
1.483;-0.0341797
1.484;-0.0311279
1.485;-0.0268555
1.486;-0.0222778
1.487;-0.0167847
1.488;-0.0109863
1.489;-0.00488281
1.49;0.00213623
1.491;0.00946045
1.492;0.0177002
1.493;0.0268555
1.494;0.0372314
1.495;0.0485229
1.496;0.0613403
1.497;0.0747681
1.498;0.0894165
1.499;0.10498
1.5;0.121155
1.501;0.138245
1.502;0.15686
1.503;0.176392
1.504;0.197144
1.505;0.218811
1.506;0.241089
1.507;0.263977
1.508;0.28717
1.509;0.310059
1.51;0.332336
1.511;0.352478
1.512;0.369263
1.513;0.381775
1.514;0.388794
1.515;0.390015
1.516;0.384521
1.517;0.37262
1.518;0.354004
1.519;0.32959
1.52;0.299683
1.521;0.265198
1.522;0.22644
1.523;0.183411
1.524;0.137024
1.525;0.0875854
1.526;0.0360107
1.527;-0.0164795
1.528;-0.0686646
1.529;-0.118713
1.53;-0.165405
1.531;-0.20752
1.532;-0.244141
1.533;-0.274963
1.534;-0.299377
1.535;-0.317078
1.536;-0.328369
1.537;-0.332947
1.538;-0.331116
1.539;-0.323181
1.54;-0.310364
1.541;-0.293274
1.542;-0.272522
1.543;-0.249634
1.544;-0.224609
1.545;-0.198364
1.546;-0.172119
1.547;-0.14679
1.548;-0.122681
1.549;-0.100098
1.55;-0.0796509
1.551;-0.0616455
1.552;-0.0457764
1.553;-0.0323486
1.554;-0.0210571
1.555;-0.012207
1.556;-0.00518799
1.557;0
1.558;0.00396729
1.559;0.00640869
1.56;0.00793457
1.561;0.00854492
1.562;0.0088501
1.563;0.00854492
1.564;0.00762939
1.565;0.00610352
1.566;0.00427246
1.567;0.00213623
1.568;-0.000305176
1.569;-0.00305176
1.57;-0.00579834
1.571;-0.00823975
1.572;-0.0109863
1.573;-0.0134277
1.574;-0.0158691
1.575;-0.0180054
1.576;-0.0192261
1.577;-0.0195312
1.578;-0.0189209
1.579;-0.0180054
1.58;-0.0167847
1.581;-0.0152588
1.582;-0.0137329
1.583;-0.012207
1.584;-0.010376
1.585;-0.00823975
1.586;-0.00640869
1.587;-0.00427246
1.588;-0.00213623
1.589;-0.000305176
1.59;0.0012207
1.591;0.00213623
1.592;0.00335693
1.593;0.00457764
1.594;0.00518799
1.595;0.00518799
1.596;0.00457764
1.597;0.00366211
1.598;0.00244141
1.599;0.00183105
1.6;0.00152588
1.601;0.00183105
1.602;0.00305176
1.603;0.00457764
1.604;0.00610352
1.605;0.00823975
1.606;0.010376
1.607;0.012207
1.608;0.0143433
1.609;0.0164795
1.61;0.0183105
1.611;0.0198364
1.612;0.0210571
1.613;0.0219727
1.614;0.0228882
1.615;0.0238037
1.616;0.0244141
1.617;0.0250244
1.618;0.0256348
1.619;0.0256348
1.62;0.0253296
1.621;0.0247192
1.622;0.0238037
1.623;0.0222778
1.624;0.0210571
1.625;0.0198364
1.626;0.0192261
1.627;0.0189209
1.628;0.0189209
1.629;0.0195312
1.63;0.0204468
1.631;0.0222778
1.632;0.0244141
1.633;0.0262451
1.634;0.0274658
1.635;0.0280762
1.636;0.0283813
1.637;0.0280762
1.638;0.0283813
1.639;0.0286865
1.64;0.0299072
1.641;0.0311279
1.642;0.0323486
1.643;0.0335693
1.644;0.0341797
1.645;0.0344849
1.646;0.0344849
1.647;0.03479
1.648;0.03479
1.649;0.0350952
1.65;0.0357056
1.651;0.0366211
1.652;0.0378418
1.653;0.0393677
1.654;0.0405884
1.655;0.0421143
1.656;0.0430298
1.657;0.0439453
1.658;0.0448608
1.659;0.0460815
1.66;0.0469971
1.661;0.0476074
1.662;0.0482178
1.663;0.0482178
1.664;0.0482178
1.665;0.0476074
1.666;0.0466919
1.667;0.045166
1.668;0.0436401
1.669;0.0421143
1.67;0.0405884
1.671;0.0396729
1.672;0.0390625
1.673;0.0387573
1.674;0.0384521
1.675;0.0378418
1.676;0.0372314
1.677;0.0363159
1.678;0.0357056
1.679;0.0350952
1.68;0.0350952
1.681;0.0354004
1.682;0.0360107
1.683;0.0369263
1.684;0.038147
1.685;0.039978
1.686;0.0418091
1.687;0.043335
1.688;0.0445557
1.689;0.045166
1.69;0.0454712
1.691;0.0454712
1.692;0.0457764
1.693;0.0460815
1.694;0.0463867
1.695;0.0469971
1.696;0.0479126
1.697;0.0488281
1.698;0.0494385
1.699;0.0497437
1.7;0.0500488
1.701;0.0506592
1.702;0.0518799
1.703;0.0531006
1.704;0.0546265
1.705;0.0564575
1.706;0.0579834
1.707;0.0592041
1.708;0.0601196
1.709;0.0613403
1.71;0.062561
1.711;0.0637817
1.712;0.0650024
1.713;0.065918
1.714;0.0674438
1.715;0.0689697
1.716;0.0708008
1.717;0.0726318
1.718;0.0741577
1.719;0.0756836
1.72;0.0769043
1.721;0.0775146
1.722;0.0778198
1.723;0.0775146
1.724;0.0769043
1.725;0.0762939
1.726;0.0756836
1.727;0.0753784
1.728;0.0753784
1.729;0.0750732
1.73;0.0744629
1.731;0.0741577
1.732;0.0735474
1.733;0.072937
1.734;0.0726318
1.735;0.0726318
1.736;0.0726318
1.737;0.0726318
1.738;0.0723267
1.739;0.0717163
1.74;0.0714111
1.741;0.0708008
1.742;0.0701904
1.743;0.0692749
1.744;0.0683594
1.745;0.0680542
1.746;0.0683594
1.747;0.0689697
1.748;0.0698853
1.749;0.0708008
1.75;0.071106
1.751;0.0708008
1.752;0.0698853
1.753;0.0686646
1.754;0.0674438
1.755;0.0662231
1.756;0.0643921
1.757;0.062561
1.758;0.0604248
1.759;0.0585938
1.76;0.0567627
1.761;0.0546265
1.762;0.0518799
1.763;0.0485229
1.764;0.045166
1.765;0.0421143
1.766;0.0390625
1.767;0.0366211
1.768;0.0344849
1.769;0.0323486
1.77;0.0302124
1.771;0.0280762
1.772;0.0256348
1.773;0.0231934
1.774;0.020752
1.775;0.0180054
1.776;0.015564
1.777;0.0131226
1.778;0.0106812
1.779;0.00854492
1.78;0.00640869
1.781;0.00427246
1.782;0.00213623
1.783;-0.000610352
1.784;-0.00366211
1.785;-0.00732422
1.786;-0.0109863
1.787;-0.0143433
1.788;-0.0180054
1.789;-0.0213623
1.79;-0.0250244
1.791;-0.0292969
1.792;-0.0335693
1.793;-0.038147
1.794;-0.0421143
1.795;-0.0454712
1.796;-0.0479126
1.797;-0.0494385
1.798;-0.0500488
1.799;-0.050354
1.8;-0.0497437
1.801;-0.0494385
1.802;-0.0488281
1.803;-0.0482178
1.804;-0.0473022
1.805;-0.0460815
1.806;-0.0448608
1.807;-0.043335
1.808;-0.0408936
1.809;-0.038147
1.81;-0.0350952
1.811;-0.0314331
1.812;-0.0283813
1.813;-0.0262451
1.814;-0.0244141
1.815;-0.0231934
1.816;-0.0222778
1.817;-0.0210571
1.818;-0.0198364
1.819;-0.0186157
1.82;-0.017395
1.821;-0.0161743
1.822;-0.0152588
1.823;-0.0146484
1.824;-0.0140381
1.825;-0.0140381
1.826;-0.0140381
1.827;-0.0137329
1.828;-0.0131226
1.829;-0.012207
1.83;-0.0115967
1.831;-0.0115967
1.832;-0.0119019
1.833;-0.0119019
1.834;-0.0115967
1.835;-0.0106812
1.836;-0.00946045
1.837;-0.00854492
1.838;-0.00762939
1.839;-0.00671387
1.84;-0.00518799
1.841;-0.00335693
1.842;-0.00152588
1.843;0
1.844;0.00152588
1.845;0.00244141
1.846;0.00366211
1.847;0.00457764
1.848;0.00549316
1.849;0.00671387
1.85;0.00823975
1.851;0.010376
1.852;0.0125122
1.853;0.0149536
1.854;0.0170898
1.855;0.0186157
1.856;0.0198364
1.857;0.0204468
1.858;0.0201416
1.859;0.0192261
1.86;0.0180054
1.861;0.0167847
1.862;0.015564
1.863;0.0149536
1.864;0.0149536
1.865;0.015564
1.866;0.0164795
1.867;0.0170898
1.868;0.0177002
1.869;0.0177002
1.87;0.017395
1.871;0.0167847
1.872;0.0161743
1.873;0.0158691
1.874;0.015564
1.875;0.0152588
1.876;0.0152588
1.877;0.0152588
1.878;0.015564
1.879;0.0158691
1.88;0.0161743
1.881;0.0164795
1.882;0.0170898
1.883;0.0177002
1.884;0.0180054
1.885;0.0180054
1.886;0.0177002
1.887;0.0167847
1.888;0.015564
1.889;0.0146484
1.89;0.0143433
1.891;0.0143433
1.892;0.0146484
1.893;0.015564
1.894;0.0164795
1.895;0.0177002
1.896;0.0189209
1.897;0.0204468
1.898;0.0222778
1.899;0.0241089
1.9;0.0259399
1.901;0.027771
1.902;0.0292969
1.903;0.0305176
1.904;0.0314331
1.905;0.0326538
1.906;0.0338745
1.907;0.0350952
1.908;0.0363159
1.909;0.0378418
1.91;0.0387573
1.911;0.0396729
1.912;0.0402832
1.913;0.0405884
1.914;0.0405884
1.915;0.0405884
1.916;0.0405884
1.917;0.0402832
1.918;0.039978
1.919;0.0393677
1.92;0.0384521
1.921;0.0378418
1.922;0.0375366
1.923;0.0378418
1.924;0.0384521
1.925;0.0387573
1.926;0.0390625
1.927;0.0387573
1.928;0.0384521
1.929;0.038147
1.93;0.0375366
1.931;0.0375366
1.932;0.0372314
1.933;0.0372314
1.934;0.0372314
1.935;0.0372314
1.936;0.0375366
1.937;0.038147
1.938;0.0390625
1.939;0.0405884
1.94;0.0421143
1.941;0.0439453
1.942;0.0457764
1.943;0.0473022
1.944;0.0482178
1.945;0.0488281
1.946;0.0494385
1.947;0.050354
1.948;0.0518799
1.949;0.0537109
1.95;0.0552368
1.951;0.0567627
1.952;0.0582886
1.953;0.0595093
1.954;0.0604248
1.955;0.0613403
1.956;0.0616455
1.957;0.0613403
1.958;0.06073
1.959;0.0595093
1.96;0.0579834
1.961;0.0561523
1.962;0.0540161
1.963;0.0515747
1.964;0.0494385
1.965;0.0479126
1.966;0.0466919
1.967;0.0454712
1.968;0.0439453
1.969;0.0424194
1.97;0.0405884
1.971;0.0390625
1.972;0.0384521
1.973;0.0384521
1.974;0.0390625
1.975;0.0396729
1.976;0.039978
1.977;0.039978
1.978;0.039978
1.979;0.039978
1.98;0.0402832
1.981;0.0405884
1.982;0.0408936
1.983;0.0415039
1.984;0.0418091
1.985;0.0421143
1.986;0.0421143
1.987;0.0415039
1.988;0.039978
1.989;0.038147
1.99;0.0357056
1.991;0.032959
1.992;0.0302124
1.993;0.027771
1.994;0.0259399
1.995;0.0247192
1.996;0.0241089
1.997;0.0228882
1.998;0.0216675
1.999;0.0201416
2;0.0186157
2.001;0.017395
2.002;0.0167847
2.003;0.0164795
2.004;0.0161743
2.005;0.0164795
2.006;0.0170898
2.007;0.0180054
2.008;0.0192261
2.009;0.0204468
2.01;0.0213623
2.011;0.022583
2.012;0.0238037
2.013;0.0247192
2.014;0.0256348
2.015;0.0262451
2.016;0.0262451
2.017;0.0262451
2.018;0.0259399
2.019;0.0259399
2.02;0.0259399
2.021;0.0262451
2.022;0.0265503
2.023;0.0271606
2.024;0.0271606
2.025;0.0271606
2.026;0.0268555
2.027;0.0259399
2.028;0.0247192
2.029;0.0228882
2.03;0.020752
2.031;0.0189209
2.032;0.0180054
2.033;0.0180054
2.034;0.0192261
2.035;0.020752
2.036;0.0222778
2.037;0.0238037
2.038;0.0250244
2.039;0.0262451
2.04;0.0271606
2.041;0.027771
2.042;0.0280762
2.043;0.027771
2.044;0.0271606
2.045;0.0259399
2.046;0.0250244
2.047;0.0244141
2.048;0.0241089
2.049;0.0244141
2.05;0.0244141
2.051;0.0244141
2.052;0.0241089
2.053;0.0231934
2.054;0.0213623
2.055;0.0195312
2.056;0.017395
2.057;0.0152588
2.058;0.0134277
2.059;0.0119019
2.06;0.0106812
2.061;0.00946045
2.062;0.00854492
2.063;0.00793457
2.064;0.00793457
2.065;0.00823975
2.066;0.00854492
2.067;0.00915527
2.068;0.0100708
2.069;0.0106812
2.07;0.0112915
2.071;0.0115967
2.072;0.0115967
2.073;0.0106812
2.074;0.00976562
2.075;0.00854492
2.076;0.00701904
2.077;0.00549316
2.078;0.00396729
2.079;0.00244141
2.08;0.000915527
2.081;0.000305176
2.082;0
2.083;-0.000305176
2.084;-0.000305176
2.085;-0.000610352
2.086;-0.000915527
2.087;-0.000915527
2.088;-0.000610352
2.089;-0.000305176
2.09;0
2.091;0
2.092;-0.000305176
2.093;-0.000610352
2.094;-0.000305176
2.095;0.000610352
2.096;0.00183105
2.097;0.00335693
2.098;0.00427246
2.099;0.00549316
2.1;0.00610352
2.101;0.00701904
2.102;0.00732422
2.103;0.00762939
2.104;0.00823975
2.105;0.00854492
2.106;0.0088501
2.107;0.0088501
2.108;0.0088501
2.109;0.00946045
2.11;0.010376
2.111;0.0115967
2.112;0.0134277
2.113;0.0149536
2.114;0.0164795
2.115;0.017395
2.116;0.0183105
2.117;0.0192261
2.118;0.0201416
2.119;0.0216675
2.12;0.0228882
2.121;0.0241089
2.122;0.0250244
2.123;0.0256348
2.124;0.0256348
2.125;0.0256348
2.126;0.0253296
2.127;0.0256348
2.128;0.0256348
2.129;0.0256348
2.13;0.0256348
2.131;0.0247192
2.132;0.0234985
2.133;0.0219727
2.134;0.0204468
2.135;0.0183105
2.136;0.0167847
2.137;0.0149536
2.138;0.0137329
2.139;0.012207
2.14;0.010376
2.141;0.00854492
2.142;0.00610352
2.143;0.00427246
2.144;0.00244141
2.145;0.000610352
2.146;-0.000610352
2.147;-0.00152588
2.148;-0.00213623
2.149;-0.00213623
2.15;-0.00183105
2.151;-0.00183105
2.152;-0.00213623
2.153;-0.00244141
2.154;-0.00274658
2.155;-0.00274658
2.156;-0.00305176
2.157;-0.00305176
2.158;-0.00305176
2.159;-0.00335693
2.16;-0.00396729
2.161;-0.00457764
2.162;-0.00549316
2.163;-0.00671387
2.164;-0.00793457
2.165;-0.00915527
2.166;-0.0100708
2.167;-0.0109863
2.168;-0.012207
2.169;-0.0134277
2.17;-0.0149536
2.171;-0.0164795
2.172;-0.0180054
2.173;-0.0192261
2.174;-0.0204468
2.175;-0.0213623
2.176;-0.022583
2.177;-0.0238037
2.178;-0.0247192
2.179;-0.0253296
2.18;-0.0256348
2.181;-0.0256348
2.182;-0.0253296
2.183;-0.0253296
2.184;-0.0250244
2.185;-0.0250244
2.186;-0.0256348
2.187;-0.0265503
2.188;-0.0280762
2.189;-0.0296021
2.19;-0.0311279
2.191;-0.0320435
2.192;-0.0326538
2.193;-0.0323486
2.194;-0.0314331
2.195;-0.0302124
2.196;-0.0286865
2.197;-0.0274658
2.198;-0.0262451
2.199;-0.0253296
2.2;-0.0244141
2.201;-0.0231934
2.202;-0.0219727
2.203;-0.0210571
2.204;-0.0201416
2.205;-0.0198364
2.206;-0.0189209
2.207;-0.0180054
2.208;-0.0167847
2.209;-0.015564
2.21;-0.0137329
2.211;-0.0125122
2.212;-0.0115967
2.213;-0.0109863
2.214;-0.0112915
2.215;-0.0115967
2.216;-0.012207
2.217;-0.0125122
2.218;-0.0131226
2.219;-0.0137329
2.22;-0.0143433
2.221;-0.0152588
2.222;-0.0161743
2.223;-0.0170898
2.224;-0.0183105
2.225;-0.0195312
2.226;-0.0210571
2.227;-0.022583
2.228;-0.0241089
2.229;-0.0256348
2.23;-0.0268555
2.231;-0.027771
2.232;-0.027771
2.233;-0.0268555
2.234;-0.0247192
2.235;-0.0210571
2.236;-0.0161743
2.237;-0.0100708
2.238;-0.00274658
2.239;0.00518799
2.24;0.0137329
2.241;0.0228882
2.242;0.0326538
2.243;0.0430298
2.244;0.0549316
2.245;0.0686646
2.246;0.0842285
2.247;0.101624
2.248;0.120544
2.249;0.140076
2.25;0.159607
2.251;0.179749
2.252;0.2005
2.253;0.221558
2.254;0.243225
2.255;0.265503
2.256;0.287476
2.257;0.308838
2.258;0.329285
2.259;0.348206
2.26;0.364685
2.261;0.378113
2.262;0.387573
2.263;0.392456
2.264;0.391846
2.265;0.385132
2.266;0.372009
2.267;0.352173
2.268;0.326233
2.269;0.2948
2.27;0.258484
2.271;0.217896
2.272;0.17334
2.273;0.125732
2.274;0.0762939
2.275;0.0253296
2.276;-0.0259399
2.277;-0.0762939
2.278;-0.124817
2.279;-0.170288
2.28;-0.212097
2.281;-0.248718
2.282;-0.279846
2.283;-0.304871
2.284;-0.322876
2.285;-0.334473
2.286;-0.339661
2.287;-0.33844
2.288;-0.331116
2.289;-0.318604
2.29;-0.301819
2.291;-0.281677
2.292;-0.258179
2.293;-0.233154
2.294;-0.207214
2.295;-0.18219
2.296;-0.158386
2.297;-0.136414
2.298;-0.116577
2.299;-0.0991821
2.3;-0.0839233
2.301;-0.071106
2.302;-0.06073
2.303;-0.0524902
2.304;-0.0460815
2.305;-0.0421143
2.306;-0.0396729
2.307;-0.0384521
2.308;-0.0387573
2.309;-0.0396729
2.31;-0.0415039
2.311;-0.043335
2.312;-0.0454712
2.313;-0.0476074
2.314;-0.0494385
2.315;-0.0512695
2.316;-0.0531006
2.317;-0.0543213
2.318;-0.055542
2.319;-0.0564575
2.32;-0.0570679
2.321;-0.0576782
2.322;-0.0582886
2.323;-0.0588989
2.324;-0.0592041
2.325;-0.0588989
2.326;-0.0582886
2.327;-0.057373
2.328;-0.055542
2.329;-0.0537109
2.33;-0.0512695
2.331;-0.0491333
2.332;-0.0469971
2.333;-0.0448608
2.334;-0.0430298
2.335;-0.0405884
2.336;-0.0378418
2.337;-0.0350952
2.338;-0.0323486
2.339;-0.0296021
2.34;-0.0271606
2.341;-0.0250244
2.342;-0.0234985
2.343;-0.0222778
2.344;-0.0213623
2.345;-0.0213623
2.346;-0.0216675
2.347;-0.0222778
2.348;-0.022583
2.349;-0.0222778
2.35;-0.0219727
2.351;-0.0213623
2.352;-0.020752
2.353;-0.0201416
2.354;-0.0192261
2.355;-0.0180054
2.356;-0.0167847
2.357;-0.0149536
2.358;-0.0128174
2.359;-0.0106812
2.36;-0.00854492
2.361;-0.00671387
2.362;-0.00488281
2.363;-0.00305176
2.364;-0.000915527
2.365;0.000915527
2.366;0.00213623
2.367;0.00305176
2.368;0.00335693
2.369;0.00335693
2.37;0.00274658
2.371;0.00183105
2.372;0.000915527
2.373;-0.000305176
2.374;-0.00183105
2.375;-0.00274658
2.376;-0.00366211
2.377;-0.00427246
2.378;-0.00488281
2.379;-0.00549316
2.38;-0.00579834
2.381;-0.00579834
2.382;-0.00549316
2.383;-0.00427246
2.384;-0.00274658
2.385;-0.000610352
2.386;0.00213623
2.387;0.00549316
2.388;0.0088501
2.389;0.012207
2.39;0.0152588
2.391;0.0180054
2.392;0.0213623
2.393;0.0244141
2.394;0.027771
2.395;0.0302124
2.396;0.0323486
2.397;0.0335693
2.398;0.0344849
2.399;0.03479
2.4;0.03479
2.401;0.0350952
2.402;0.0350952
2.403;0.0354004
2.404;0.0354004
2.405;0.0354004
2.406;0.03479
2.407;0.0341797
2.408;0.0335693
2.409;0.032959
2.41;0.0326538
2.411;0.0320435
2.412;0.0314331
2.413;0.0308228
2.414;0.0302124
2.415;0.0299072
2.416;0.0302124
2.417;0.0314331
2.418;0.0326538
2.419;0.0344849
2.42;0.0357056
2.421;0.0366211
2.422;0.0372314
2.423;0.0375366
2.424;0.038147
2.425;0.0393677
2.426;0.0408936
2.427;0.0430298
2.428;0.045166
2.429;0.0473022
2.43;0.0491333
2.431;0.0506592
2.432;0.0521851
2.433;0.0531006
2.434;0.0537109
2.435;0.0546265
2.436;0.055542
2.437;0.0567627
2.438;0.0582886
2.439;0.0601196
2.44;0.0619507
2.441;0.0634766
2.442;0.0643921
2.443;0.0643921
2.444;0.0640869
2.445;0.0637817
2.446;0.0640869
2.447;0.0650024
2.448;0.065918
2.449;0.0668335
2.45;0.0680542
2.451;0.0686646
2.452;0.0686646
2.453;0.0686646
2.454;0.0680542
2.455;0.0674438
2.456;0.0668335
2.457;0.0662231
2.458;0.0662231
2.459;0.0668335
2.46;0.067749
2.461;0.0692749
2.462;0.0714111
2.463;0.0735474
2.464;0.0756836
2.465;0.0772095
2.466;0.0787354
2.467;0.0802612
2.468;0.0814819
2.469;0.0827026
2.47;0.0836182
2.471;0.0845337
2.472;0.0860596
2.473;0.0881958
2.474;0.0906372
2.475;0.0930786
2.476;0.0952148
2.477;0.0964355
2.478;0.0967407
2.479;0.0961304
2.48;0.09552
2.481;0.0942993
2.482;0.0927734
2.483;0.0915527
2.484;0.090332
2.485;0.0894165
2.486;0.0888062
2.487;0.088501
2.488;0.088501
2.489;0.088501
2.49;0.0881958
2.491;0.0878906
2.492;0.0869751
2.493;0.0860596
2.494;0.0845337
2.495;0.0827026
2.496;0.0805664
2.497;0.0787354
2.498;0.0769043
2.499;0.0756836
2.5;0.0747681
2.501;0.0741577
2.502;0.0735474
2.503;0.072937
2.504;0.0720215
2.505;0.0708008
2.506;0.0689697
2.507;0.0671387
2.508;0.0653076
2.509;0.0631714
2.51;0.0610352
2.511;0.0588989
2.512;0.0564575
2.513;0.0540161
2.514;0.0515747
2.515;0.0485229
2.516;0.0454712
2.517;0.0418091
2.518;0.0378418
2.519;0.0332642
2.52;0.0286865
2.521;0.0238037
2.522;0.0192261
2.523;0.0146484
2.524;0.0106812
2.525;0.00640869
2.526;0.00244141
2.527;-0.000915527
2.528;-0.00457764
2.529;-0.00793457
2.53;-0.0112915
2.531;-0.0149536
2.532;-0.0183105
2.533;-0.0213623
2.534;-0.0238037
2.535;-0.0253296
2.536;-0.0265503
2.537;-0.027771
2.538;-0.0283813
2.539;-0.0292969
2.54;-0.0299072
2.541;-0.0308228
2.542;-0.0317383
2.543;-0.0326538
2.544;-0.0332642
2.545;-0.0341797
2.546;-0.0350952
2.547;-0.0363159
2.548;-0.0378418
2.549;-0.0396729
2.55;-0.0421143
2.551;-0.0448608
2.552;-0.0469971
2.553;-0.0488281
2.554;-0.0500488
2.555;-0.0509644
2.556;-0.0512695
2.557;-0.0512695
2.558;-0.0509644
2.559;-0.0509644
2.56;-0.0509644
2.561;-0.0509644
2.562;-0.0509644
2.563;-0.0509644
2.564;-0.0506592
2.565;-0.0506592
2.566;-0.0509644
2.567;-0.0506592
2.568;-0.050354
2.569;-0.0497437
2.57;-0.0488281
2.571;-0.0479126
2.572;-0.0469971
2.573;-0.0454712
2.574;-0.0439453
2.575;-0.0421143
2.576;-0.0405884
2.577;-0.0393677
2.578;-0.038147
2.579;-0.0372314
2.58;-0.0363159
2.581;-0.0354004
2.582;-0.0344849
2.583;-0.0338745
2.584;-0.032959
2.585;-0.0323486
2.586;-0.0314331
2.587;-0.0305176
2.588;-0.0292969
2.589;-0.0280762
2.59;-0.0268555
2.591;-0.0259399
2.592;-0.0247192
2.593;-0.0231934
2.594;-0.0219727
2.595;-0.0204468
2.596;-0.0195312
2.597;-0.0189209
2.598;-0.0186157
2.599;-0.0183105
2.6;-0.0180054
2.601;-0.017395
2.602;-0.0164795
2.603;-0.015564
2.604;-0.0146484
2.605;-0.0137329
2.606;-0.0125122
2.607;-0.0109863
2.608;-0.0100708
2.609;-0.00915527
2.61;-0.0088501
2.611;-0.00915527
2.612;-0.00976562
2.613;-0.010376
2.614;-0.0109863
2.615;-0.0112915
2.616;-0.0112915
2.617;-0.0115967
2.618;-0.0115967
2.619;-0.0119019
2.62;-0.012207
2.621;-0.0125122
2.622;-0.0131226
2.623;-0.0131226
2.624;-0.0134277
2.625;-0.0131226
2.626;-0.0128174
2.627;-0.0125122
2.628;-0.0119019
2.629;-0.0115967
2.63;-0.0115967
2.631;-0.0115967
2.632;-0.0119019
2.633;-0.012207
2.634;-0.0125122
2.635;-0.012207
2.636;-0.0119019
2.637;-0.0115967
2.638;-0.0109863
2.639;-0.0109863
2.64;-0.0115967
2.641;-0.012207
2.642;-0.0134277
2.643;-0.0143433
2.644;-0.015564
2.645;-0.0170898
2.646;-0.0186157
2.647;-0.0198364
2.648;-0.0204468
2.649;-0.020752
2.65;-0.0204468
2.651;-0.020752
2.652;-0.020752
2.653;-0.020752
2.654;-0.0210571
2.655;-0.020752
2.656;-0.0204468
2.657;-0.0201416
2.658;-0.0192261
2.659;-0.0180054
2.66;-0.0164795
2.661;-0.0149536
2.662;-0.0131226
2.663;-0.0112915
2.664;-0.0100708
2.665;-0.00915527
2.666;-0.0088501
2.667;-0.0088501
2.668;-0.00946045
2.669;-0.0106812
2.67;-0.012207
2.671;-0.0140381
2.672;-0.0161743
2.673;-0.0183105
2.674;-0.0210571
2.675;-0.0238037
2.676;-0.0259399
2.677;-0.0280762
2.678;-0.0292969
2.679;-0.0305176
2.68;-0.0314331
2.681;-0.0320435
2.682;-0.0323486
2.683;-0.032959
2.684;-0.0332642
2.685;-0.0332642
2.686;-0.0326538
2.687;-0.0311279
2.688;-0.0292969
2.689;-0.0268555
2.69;-0.0247192
2.691;-0.0222778
2.692;-0.0201416
2.693;-0.0186157
2.694;-0.017395
2.695;-0.0167847
2.696;-0.0164795
2.697;-0.0167847
2.698;-0.0167847
2.699;-0.017395
2.7;-0.0183105
2.701;-0.0195312
2.702;-0.0213623
2.703;-0.0234985
2.704;-0.0247192
2.705;-0.0256348
2.706;-0.0259399
2.707;-0.0259399
2.708;-0.0262451
2.709;-0.0262451
2.71;-0.0262451
2.711;-0.0259399
2.712;-0.0256348
2.713;-0.0253296
2.714;-0.0247192
2.715;-0.0238037
2.716;-0.0228882
2.717;-0.0213623
2.718;-0.0201416
2.719;-0.0186157
2.72;-0.017395
2.721;-0.0164795
2.722;-0.0158691
2.723;-0.0158691
2.724;-0.0161743
2.725;-0.0164795
2.726;-0.0170898
2.727;-0.017395
2.728;-0.017395
2.729;-0.017395
2.73;-0.0177002
2.731;-0.0177002
2.732;-0.0177002
2.733;-0.0180054
2.734;-0.0180054
2.735;-0.0180054
2.736;-0.0177002
2.737;-0.0170898
2.738;-0.0158691
2.739;-0.0146484
2.74;-0.0131226
2.741;-0.0119019
2.742;-0.0106812
2.743;-0.00946045
2.744;-0.00793457
2.745;-0.00671387
2.746;-0.00518799
2.747;-0.00366211
2.748;-0.00213623
2.749;-0.000915527
2.75;0
2.751;0
2.752;0
2.753;0
2.754;0.000305176
2.755;0.00152588
2.756;0.00305176
2.757;0.00488281
2.758;0.00640869
2.759;0.00762939
2.76;0.00823975
2.761;0.00854492
2.762;0.00854492
2.763;0.0088501
2.764;0.0088501
2.765;0.0088501
2.766;0.00823975
2.767;0.00732422
2.768;0.00671387
2.769;0.00579834
2.77;0.00549316
2.771;0.00488281
2.772;0.00427246
2.773;0.00305176
2.774;0.0012207
2.775;-0.000915527
2.776;-0.00274658
2.777;-0.00396729
2.778;-0.00457764
2.779;-0.00457764
2.78;-0.00427246
2.781;-0.00366211
2.782;-0.00366211
2.783;-0.00366211
2.784;-0.00396729
2.785;-0.00427246
2.786;-0.00457764
2.787;-0.00457764
2.788;-0.00457764
2.789;-0.00427246
2.79;-0.00396729
2.791;-0.00335693
2.792;-0.00305176
2.793;-0.00274658
2.794;-0.00244141
2.795;-0.00244141
2.796;-0.00244141
2.797;-0.00274658
2.798;-0.00335693
2.799;-0.00427246
2.8;-0.00518799
2.801;-0.00640869
2.802;-0.00793457
2.803;-0.00915527
2.804;-0.010376
2.805;-0.0112915
2.806;-0.012207
2.807;-0.0128174
2.808;-0.0131226
2.809;-0.0131226
2.81;-0.0125122
2.811;-0.0115967
2.812;-0.0106812
2.813;-0.00976562
2.814;-0.00915527
2.815;-0.00915527
2.816;-0.0088501
2.817;-0.00823975
2.818;-0.00701904
2.819;-0.00549316
2.82;-0.00366211
2.821;-0.00183105
2.822;-0.000305176
2.823;0.0012207
2.824;0.00274658
2.825;0.00427246
2.826;0.00579834
2.827;0.00762939
2.828;0.00915527
2.829;0.0100708
2.83;0.0106812
2.831;0.0109863
2.832;0.0106812
2.833;0.0100708
2.834;0.00915527
2.835;0.00793457
2.836;0.00610352
2.837;0.00396729
2.838;0.00183105
2.839;0
2.84;-0.00152588
2.841;-0.00244141
2.842;-0.00335693
2.843;-0.00427246
2.844;-0.00549316
2.845;-0.00671387
2.846;-0.00854492
2.847;-0.0100708
2.848;-0.0115967
2.849;-0.0128174
2.85;-0.0134277
2.851;-0.0137329
2.852;-0.0137329
2.853;-0.0137329
2.854;-0.0128174
2.855;-0.0119019
2.856;-0.010376
2.857;-0.00915527
2.858;-0.00793457
2.859;-0.00732422
2.86;-0.00671387
2.861;-0.00640869
2.862;-0.00640869
2.863;-0.00610352
2.864;-0.00549316
2.865;-0.00518799
2.866;-0.00518799
2.867;-0.00518799
2.868;-0.00549316
2.869;-0.00549316
2.87;-0.00579834
2.871;-0.00610352
2.872;-0.00640869
2.873;-0.00701904
2.874;-0.00762939
2.875;-0.00762939
2.876;-0.00793457
2.877;-0.00793457
2.878;-0.00854492
2.879;-0.00976562
2.88;-0.0109863
2.881;-0.0125122
2.882;-0.0137329
2.883;-0.0143433
2.884;-0.0146484
2.885;-0.0143433
2.886;-0.0140381
2.887;-0.0134277
2.888;-0.0128174
2.889;-0.0128174
2.89;-0.0131226
2.891;-0.0140381
2.892;-0.0149536
2.893;-0.0158691
2.894;-0.0161743
2.895;-0.0158691
2.896;-0.0152588
2.897;-0.0143433
2.898;-0.0137329
2.899;-0.0134277
2.9;-0.0134277
2.901;-0.0140381
2.902;-0.0149536
2.903;-0.0158691
2.904;-0.0170898
2.905;-0.0183105
2.906;-0.0195312
2.907;-0.020752
2.908;-0.0219727
2.909;-0.0234985
2.91;-0.0247192
2.911;-0.0259399
2.912;-0.0271606
2.913;-0.0280762
2.914;-0.0283813
2.915;-0.0286865
2.916;-0.0292969
2.917;-0.0305176
2.918;-0.0317383
2.919;-0.0332642
2.92;-0.0338745
2.921;-0.0341797
2.922;-0.0338745
2.923;-0.032959
2.924;-0.0317383
2.925;-0.0305176
2.926;-0.0292969
2.927;-0.0280762
2.928;-0.0274658
2.929;-0.0268555
2.93;-0.0262451
2.931;-0.0256348
2.932;-0.0250244
2.933;-0.0241089
2.934;-0.0234985
2.935;-0.022583
2.936;-0.0222778
2.937;-0.022583
2.938;-0.0234985
2.939;-0.0247192
2.94;-0.0262451
2.941;-0.0274658
2.942;-0.0283813
2.943;-0.0292969
2.944;-0.0299072
2.945;-0.0302124
2.946;-0.0305176
2.947;-0.0305176
2.948;-0.0305176
2.949;-0.0302124
2.95;-0.0292969
2.951;-0.0274658
2.952;-0.0259399
2.953;-0.0241089
2.954;-0.0231934
2.955;-0.022583
2.956;-0.022583
2.957;-0.0222778
2.958;-0.0219727
2.959;-0.020752
2.96;-0.0195312
2.961;-0.0180054
2.962;-0.0167847
2.963;-0.0161743
2.964;-0.0161743
2.965;-0.0161743
2.966;-0.0167847
2.967;-0.0177002
2.968;-0.0186157
2.969;-0.0198364
2.97;-0.0213623
2.971;-0.0228882
2.972;-0.0247192
2.973;-0.0262451
2.974;-0.0274658
2.975;-0.0280762
2.976;-0.0280762
2.977;-0.027771
2.978;-0.0274658
2.979;-0.0265503
2.98;-0.0259399
2.981;-0.0250244
2.982;-0.0244141
2.983;-0.0241089
2.984;-0.0238037
2.985;-0.0234985
2.986;-0.0228882
2.987;-0.0222778
2.988;-0.0213623
2.989;-0.0204468
2.99;-0.0198364
2.991;-0.0192261
2.992;-0.0189209
2.993;-0.0186157
2.994;-0.0180054
2.995;-0.0170898
2.996;-0.015564
2.997;-0.0140381
2.998;-0.0119019
2.999;-0.0100708
3;-0.00854492
3.001;-0.00701904
3.002;-0.00518799
3.003;-0.00366211
3.004;-0.00183105
3.005;0
3.006;0.00183105
3.007;0.00396729
3.008;0.00579834
3.009;0.00793457
3.01;0.00976562
3.011;0.0115967
3.012;0.0131226
3.013;0.0146484
3.014;0.015564
3.015;0.0158691
3.016;0.015564
3.017;0.0149536
3.018;0.0140381
3.019;0.0128174
3.02;0.0115967
3.021;0.010376
3.022;0.0088501
3.023;0.00793457
3.024;0.00701904
3.025;0.00671387
3.026;0.00640869
3.027;0.00671387
3.028;0.00701904
3.029;0.00732422
3.03;0.00793457
3.031;0.0088501
3.032;0.0100708
3.033;0.0109863
3.034;0.0112915
3.035;0.0115967
3.036;0.0115967
3.037;0.0119019
3.038;0.012207
3.039;0.0128174
3.04;0.0131226
3.041;0.0128174
3.042;0.0119019
3.043;0.010376
3.044;0.00854492
3.045;0.00579834
3.046;0.00274658
3.047;-0.000305176
3.048;-0.00305176
3.049;-0.00518799
3.05;-0.00732422
3.051;-0.00915527
3.052;-0.010376
3.053;-0.0115967
3.054;-0.0125122
3.055;-0.0134277
3.056;-0.0143433
3.057;-0.0152588
3.058;-0.0158691
3.059;-0.0164795
3.06;-0.0167847
3.061;-0.0167847
3.062;-0.0164795
3.063;-0.0161743
3.064;-0.0158691
3.065;-0.015564
3.066;-0.0158691
3.067;-0.0167847
3.068;-0.0183105
3.069;-0.0204468
3.07;-0.0228882
3.071;-0.0256348
3.072;-0.0283813
3.073;-0.0308228
3.074;-0.0332642
3.075;-0.0354004
3.076;-0.0375366
3.077;-0.0396729
3.078;-0.0411987
3.079;-0.0424194
3.08;-0.043335
3.081;-0.0439453
3.082;-0.0442505
3.083;-0.0442505
3.084;-0.0436401
3.085;-0.0427246
3.086;-0.0415039
3.087;-0.039978
3.088;-0.038147
3.089;-0.0360107
3.09;-0.0341797
3.091;-0.0320435
3.092;-0.0299072
3.093;-0.0280762
3.094;-0.0265503
3.095;-0.0250244
3.096;-0.0241089
3.097;-0.0238037
3.098;-0.0234985
3.099;-0.0238037
3.1;-0.0241089
3.101;-0.0247192
3.102;-0.0250244
3.103;-0.0253296
3.104;-0.0259399
3.105;-0.0265503
3.106;-0.027771
3.107;-0.0286865
3.108;-0.0296021
3.109;-0.0299072
3.11;-0.0296021
3.111;-0.0289917
3.112;-0.0280762
3.113;-0.0268555
3.114;-0.0253296
3.115;-0.0247192
3.116;-0.0241089
3.117;-0.0238037
3.118;-0.0234985
3.119;-0.0228882
3.12;-0.0219727
3.121;-0.020752
3.122;-0.0192261
3.123;-0.0170898
3.124;-0.0146484
3.125;-0.012207
3.126;-0.00976562
3.127;-0.00823975
3.128;-0.00701904
3.129;-0.00610352
3.13;-0.00549316
3.131;-0.00518799
3.132;-0.00549316
3.133;-0.00610352
3.134;-0.00701904
3.135;-0.00823975
3.136;-0.00915527
3.137;-0.00976562
3.138;-0.010376
3.139;-0.0109863
3.14;-0.0115967
3.141;-0.012207
3.142;-0.0125122
3.143;-0.012207
3.144;-0.0112915
3.145;-0.00976562
3.146;-0.00732422
3.147;-0.00396729
3.148;0.000915527
3.149;0.00732422
3.15;0.0149536
3.151;0.0238037
3.152;0.0338745
3.153;0.0448608
3.154;0.057373
3.155;0.0708008
3.156;0.0854492
3.157;0.101318
3.158;0.117798
3.159;0.134888
3.16;0.152893
3.161;0.171509
3.162;0.190735
3.163;0.210876
3.164;0.231018
3.165;0.25177
3.166;0.272522
3.167;0.293274
3.168;0.314331
3.169;0.334778
3.17;0.354614
3.171;0.37262
3.172;0.388184
3.173;0.39978
3.174;0.407104
3.175;0.40863
3.176;0.404358
3.177;0.393982
3.178;0.377808
3.179;0.35553
3.18;0.328369
3.181;0.296326
3.182;0.260315
3.183;0.220947
3.184;0.178223
3.185;0.133057
3.186;0.0854492
3.187;0.0360107
3.188;-0.0140381
3.189;-0.0631714
3.19;-0.109863
3.191;-0.153198
3.192;-0.192261
3.193;-0.226135
3.194;-0.254211
3.195;-0.276184
3.196;-0.291748
3.197;-0.299988
3.198;-0.302124
3.199;-0.297852
3.2;-0.288696
3.201;-0.275269
3.202;-0.258179
3.203;-0.238037
3.204;-0.215759
3.205;-0.192566
3.206;-0.168152
3.207;-0.143738
3.208;-0.120239
3.209;-0.0979614
3.21;-0.0784302
3.211;-0.0619507
3.212;-0.0485229
3.213;-0.0378418
3.214;-0.0299072
3.215;-0.0238037
3.216;-0.0192261
3.217;-0.0161743
3.218;-0.0146484
3.219;-0.0143433
3.22;-0.0149536
3.221;-0.0161743
3.222;-0.0170898
3.223;-0.0183105
3.224;-0.0192261
3.225;-0.0198364
3.226;-0.0201416
3.227;-0.0204468
3.228;-0.020752
3.229;-0.0210571
3.23;-0.020752
3.231;-0.0201416
3.232;-0.0189209
3.233;-0.0177002
3.234;-0.0164795
3.235;-0.015564
3.236;-0.0140381
3.237;-0.0125122
3.238;-0.0106812
3.239;-0.00854492
3.24;-0.00671387
3.241;-0.00549316
3.242;-0.00427246
3.243;-0.00335693
3.244;-0.00274658
3.245;-0.00213623
3.246;-0.0012207
3.247;0.000610352
3.248;0.00305176
3.249;0.00518799
3.25;0.00762939
3.251;0.00976562
3.252;0.0115967
3.253;0.0128174
3.254;0.0134277
3.255;0.0137329
3.256;0.0143433
3.257;0.0146484
3.258;0.0152588
3.259;0.0158691
3.26;0.0164795
3.261;0.0164795
3.262;0.0161743
3.263;0.0152588
3.264;0.0140381
3.265;0.0128174
3.266;0.0119019
3.267;0.0106812
3.268;0.00946045
3.269;0.00823975
3.27;0.00671387
3.271;0.00579834
3.272;0.00457764
3.273;0.00366211
3.274;0.00305176
3.275;0.00213623
3.276;0.00152588
3.277;0.00183105
3.278;0.00274658
3.279;0.00427246
3.28;0.00610352
3.281;0.00793457
3.282;0.00976562
3.283;0.0115967
3.284;0.0134277
3.285;0.0149536
3.286;0.0164795
3.287;0.0177002
3.288;0.0192261
3.289;0.0201416
3.29;0.0213623
3.291;0.0219727
3.292;0.022583
3.293;0.0228882
3.294;0.0231934
3.295;0.0234985
3.296;0.0241089
3.297;0.0247192
3.298;0.0253296
3.299;0.0259399
3.3;0.0265503
3.301;0.0274658
3.302;0.0283813
3.303;0.0286865
3.304;0.0283813
3.305;0.027771
3.306;0.0268555
3.307;0.0259399
3.308;0.0259399
3.309;0.0262451
3.31;0.0271606
3.311;0.0280762
3.312;0.0292969
3.313;0.0302124
3.314;0.0308228
3.315;0.0311279
3.316;0.0311279
3.317;0.0308228
3.318;0.0299072
3.319;0.0289917
3.32;0.027771
3.321;0.0262451
3.322;0.0244141
3.323;0.022583
3.324;0.0210571
3.325;0.0195312
3.326;0.0186157
3.327;0.0177002
3.328;0.017395
3.329;0.0170898
3.33;0.0167847
3.331;0.0167847
3.332;0.0164795
3.333;0.0164795
3.334;0.0167847
3.335;0.0170898
3.336;0.0180054
3.337;0.0189209
3.338;0.020752
3.339;0.0228882
3.34;0.0250244
3.341;0.0274658
3.342;0.0296021
3.343;0.0314331
3.344;0.032959
3.345;0.0344849
3.346;0.0360107
3.347;0.0372314
3.348;0.0384521
3.349;0.039978
3.35;0.0411987
3.351;0.0424194
3.352;0.0439453
3.353;0.0448608
3.354;0.045166
3.355;0.0448608
3.356;0.0436401
3.357;0.0418091
3.358;0.0396729
3.359;0.038147
3.36;0.0372314
3.361;0.0366211
3.362;0.0363159
3.363;0.0357056
3.364;0.0350952
3.365;0.0338745
3.366;0.0323486
3.367;0.0308228
3.368;0.0292969
3.369;0.027771
3.37;0.0265503
3.371;0.0259399
3.372;0.0259399
3.373;0.0262451
3.374;0.0271606
3.375;0.0283813
3.376;0.0296021
3.377;0.0311279
3.378;0.032959
3.379;0.03479
3.38;0.0369263
3.381;0.0390625
3.382;0.0411987
3.383;0.0436401
3.384;0.0457764
3.385;0.0482178
3.386;0.050354
3.387;0.0521851
3.388;0.0540161
3.389;0.055542
3.39;0.057373
3.391;0.0588989
3.392;0.0598145
3.393;0.0604248
3.394;0.0604248
3.395;0.0598145
3.396;0.0588989
3.397;0.0582886
3.398;0.057373
3.399;0.0567627
3.4;0.0558472
3.401;0.0552368
3.402;0.0540161
3.403;0.0524902
3.404;0.0509644
3.405;0.0500488
3.406;0.0494385
3.407;0.0494385
3.408;0.0491333
3.409;0.0488281
3.41;0.0479126
3.411;0.0463867
3.412;0.0445557
3.413;0.0427246
3.414;0.0408936
3.415;0.0393677
3.416;0.0378418
3.417;0.0366211
3.418;0.03479
3.419;0.0326538
3.42;0.0302124
3.421;0.0274658
3.422;0.0247192
3.423;0.0216675
3.424;0.0192261
3.425;0.0164795
3.426;0.0143433
3.427;0.0115967
3.428;0.00915527
3.429;0.00640869
3.43;0.00366211
3.431;0.000915527
3.432;-0.00183105
3.433;-0.00457764
3.434;-0.00701904
3.435;-0.00976562
3.436;-0.012207
3.437;-0.0146484
3.438;-0.0177002
3.439;-0.020752
3.44;-0.0238037
3.441;-0.0265503
3.442;-0.0296021
3.443;-0.032959
3.444;-0.0363159
3.445;-0.0402832
3.446;-0.0445557
3.447;-0.0491333
3.448;-0.0534058
3.449;-0.0570679
3.45;-0.0601196
3.451;-0.062561
3.452;-0.0650024
3.453;-0.0674438
3.454;-0.0695801
3.455;-0.0720215
3.456;-0.0741577
3.457;-0.0753784
3.458;-0.0762939
3.459;-0.0765991
3.46;-0.0769043
3.461;-0.0769043
3.462;-0.0765991
3.463;-0.0759888
3.464;-0.0753784
3.465;-0.0741577
3.466;-0.0732422
3.467;-0.0720215
3.468;-0.071106
3.469;-0.0695801
3.47;-0.0683594
3.471;-0.0674438
3.472;-0.0665283
3.473;-0.0656128
3.474;-0.0643921
3.475;-0.0634766
3.476;-0.062561
3.477;-0.0616455
3.478;-0.06073
3.479;-0.0598145
3.48;-0.0588989
3.481;-0.0576782
3.482;-0.0567627
3.483;-0.0558472
3.484;-0.055542
3.485;-0.0552368
3.486;-0.0549316
3.487;-0.0552368
3.488;-0.055542
3.489;-0.0561523
3.49;-0.0570679
3.491;-0.0579834
3.492;-0.0595093
3.493;-0.0613403
3.494;-0.0634766
3.495;-0.065918
3.496;-0.067749
3.497;-0.0689697
3.498;-0.0692749
3.499;-0.0692749
3.5;-0.0686646
3.501;-0.0680542
3.502;-0.0671387
3.503;-0.0668335
3.504;-0.0662231
3.505;-0.0653076
3.506;-0.0640869
3.507;-0.0622559
3.508;-0.0604248
3.509;-0.0585938
3.51;-0.0561523
3.511;-0.0540161
3.512;-0.0518799
3.513;-0.0500488
3.514;-0.0482178
3.515;-0.0463867
3.516;-0.0448608
3.517;-0.0430298
3.518;-0.0415039
3.519;-0.0396729
3.52;-0.038147
3.521;-0.0372314
3.522;-0.0366211
3.523;-0.0360107
3.524;-0.0360107
3.525;-0.0354004
3.526;-0.03479
3.527;-0.0344849
3.528;-0.0338745
3.529;-0.0335693
3.53;-0.0335693
3.531;-0.0335693
3.532;-0.0332642
3.533;-0.0326538
3.534;-0.0317383
3.535;-0.0308228
3.536;-0.0296021
3.537;-0.0286865
3.538;-0.0283813
3.539;-0.0280762
3.54;-0.0283813
3.541;-0.0289917
3.542;-0.0289917
3.543;-0.0286865
3.544;-0.0280762
3.545;-0.027771
3.546;-0.0271606
3.547;-0.0265503
3.548;-0.0256348
3.549;-0.0244141
3.55;-0.022583
3.551;-0.0204468
3.552;-0.0186157
3.553;-0.0170898
3.554;-0.0158691
3.555;-0.0152588
3.556;-0.0149536
3.557;-0.0152588
3.558;-0.0152588
3.559;-0.0152588
3.56;-0.0149536
3.561;-0.0146484
3.562;-0.0143433
3.563;-0.0140381
3.564;-0.0137329
3.565;-0.0140381
3.566;-0.0146484
3.567;-0.015564
3.568;-0.0170898
3.569;-0.0189209
3.57;-0.020752
3.571;-0.022583
3.572;-0.0244141
3.573;-0.0256348
3.574;-0.0262451
3.575;-0.0256348
3.576;-0.0244141
3.577;-0.0222778
3.578;-0.0201416
3.579;-0.0183105
3.58;-0.0161743
3.581;-0.0140381
3.582;-0.0119019
3.583;-0.00976562
3.584;-0.00762939
3.585;-0.00518799
3.586;-0.00274658
3.587;-0.000305176
3.588;0.00213623
3.589;0.00427246
3.59;0.00579834
3.591;0.00671387
3.592;0.00701904
3.593;0.00671387
3.594;0.00579834
3.595;0.00488281
3.596;0.00366211
3.597;0.00244141
3.598;0.00183105
3.599;0.000915527
3.6;0
3.601;-0.00152588
3.602;-0.00366211
3.603;-0.00549316
3.604;-0.00701904
3.605;-0.00762939
3.606;-0.00762939
3.607;-0.00732422
3.608;-0.00701904
3.609;-0.00701904
3.61;-0.00701904
3.611;-0.00701904
3.612;-0.00671387
3.613;-0.00610352
3.614;-0.00488281
3.615;-0.00305176
3.616;-0.0012207
3.617;0.000610352
3.618;0.00152588
3.619;0.00152588
3.62;0.000915527
3.621;0
3.622;-0.0012207
3.623;-0.00274658
3.624;-0.00366211
3.625;-0.00457764
3.626;-0.00579834
3.627;-0.00701904
3.628;-0.00823975
3.629;-0.00976562
3.63;-0.010376
3.631;-0.010376
3.632;-0.00976562
3.633;-0.0088501
3.634;-0.00762939
3.635;-0.00671387
3.636;-0.00610352
3.637;-0.00579834
3.638;-0.00610352
3.639;-0.00640869
3.64;-0.00671387
3.641;-0.00671387
3.642;-0.00671387
3.643;-0.00640869
3.644;-0.00610352
3.645;-0.00549316
3.646;-0.00518799
3.647;-0.00488281
3.648;-0.00488281
3.649;-0.00488281
3.65;-0.00549316
3.651;-0.00610352
3.652;-0.00671387
3.653;-0.00732422
3.654;-0.00823975
3.655;-0.00915527
3.656;-0.010376
3.657;-0.0115967
3.658;-0.0125122
3.659;-0.0134277
3.66;-0.0137329
3.661;-0.0137329
3.662;-0.0134277
3.663;-0.0128174
3.664;-0.012207
3.665;-0.0115967
3.666;-0.0109863
3.667;-0.0106812
3.668;-0.0109863
3.669;-0.0112915
3.67;-0.012207
3.671;-0.0137329
3.672;-0.0158691
3.673;-0.0180054
3.674;-0.0198364
3.675;-0.0216675
3.676;-0.0231934
3.677;-0.0238037
3.678;-0.0238037
3.679;-0.0228882
3.68;-0.0219727
3.681;-0.0210571
3.682;-0.020752
3.683;-0.020752
3.684;-0.0210571
3.685;-0.0213623
3.686;-0.0216675
3.687;-0.0219727
3.688;-0.0222778
3.689;-0.0219727
3.69;-0.0213623
3.691;-0.0204468
3.692;-0.0189209
3.693;-0.0180054
3.694;-0.017395
3.695;-0.0170898
3.696;-0.0177002
3.697;-0.0186157
3.698;-0.0201416
3.699;-0.022583
3.7;-0.0250244
3.701;-0.027771
3.702;-0.0302124
3.703;-0.032959
3.704;-0.0354004
3.705;-0.0378418
3.706;-0.039978
3.707;-0.0421143
3.708;-0.0439453
3.709;-0.0454712
3.71;-0.0469971
3.711;-0.0479126
3.712;-0.0488281
3.713;-0.0494385
3.714;-0.0497437
3.715;-0.0497437
3.716;-0.0494385
3.717;-0.0488281
3.718;-0.0485229
3.719;-0.0479126
3.72;-0.0466919
3.721;-0.045166
3.722;-0.0436401
3.723;-0.0424194
3.724;-0.0411987
3.725;-0.0402832
3.726;-0.0396729
3.727;-0.0393677
3.728;-0.0393677
3.729;-0.0393677
3.73;-0.0393677
3.731;-0.0390625
3.732;-0.0387573
3.733;-0.0387573
3.734;-0.0384521
3.735;-0.0384521
3.736;-0.038147
3.737;-0.0378418
3.738;-0.038147
3.739;-0.0387573
3.74;-0.0396729
3.741;-0.0405884
3.742;-0.0421143
3.743;-0.0436401
3.744;-0.045166
3.745;-0.0466919
3.746;-0.0479126
3.747;-0.0482178
3.748;-0.0482178
3.749;-0.0469971
3.75;-0.0457764
3.751;-0.0445557
3.752;-0.0436401
3.753;-0.043335
3.754;-0.043335
3.755;-0.043335
3.756;-0.043335
3.757;-0.0427246
3.758;-0.0418091
3.759;-0.0405884
3.76;-0.0393677
3.761;-0.0384521
3.762;-0.0378418
3.763;-0.0369263
3.764;-0.0357056
3.765;-0.0341797
3.766;-0.0323486
3.767;-0.0311279
3.768;-0.0305176
3.769;-0.0305176
3.77;-0.0305176
3.771;-0.0305176
3.772;-0.0302124
3.773;-0.0302124
3.774;-0.0299072
3.775;-0.0292969
3.776;-0.0280762
3.777;-0.0262451
3.778;-0.0247192
3.779;-0.0234985
3.78;-0.0222778
3.781;-0.0216675
3.782;-0.020752
3.783;-0.0192261
3.784;-0.0177002
3.785;-0.0161743
3.786;-0.0146484
3.787;-0.0134277
3.788;-0.012207
3.789;-0.0112915
3.79;-0.0106812
3.791;-0.00976562
3.792;-0.00946045
3.793;-0.0088501
3.794;-0.00854492
3.795;-0.00854492
3.796;-0.00854492
3.797;-0.00915527
3.798;-0.0100708
3.799;-0.0109863
3.8;-0.0125122
3.801;-0.0137329
3.802;-0.0149536
3.803;-0.015564
3.804;-0.015564
3.805;-0.0152588
3.806;-0.0146484
3.807;-0.0143433
3.808;-0.0140381
3.809;-0.0143433
3.81;-0.0146484
3.811;-0.015564
3.812;-0.0167847
3.813;-0.0177002
3.814;-0.0189209
3.815;-0.0195312
3.816;-0.0198364
3.817;-0.0198364
3.818;-0.0201416
3.819;-0.0204468
3.82;-0.0213623
3.821;-0.0222778
3.822;-0.0234985
3.823;-0.0244141
3.824;-0.0247192
3.825;-0.0247192
3.826;-0.0247192
3.827;-0.0247192
3.828;-0.0253296
3.829;-0.0262451
3.83;-0.0271606
3.831;-0.027771
3.832;-0.027771
3.833;-0.0268555
3.834;-0.0259399
3.835;-0.0247192
3.836;-0.0228882
3.837;-0.0213623
3.838;-0.0195312
3.839;-0.0180054
3.84;-0.0167847
3.841;-0.015564
3.842;-0.0149536
3.843;-0.0146484
3.844;-0.0140381
3.845;-0.0134277
3.846;-0.0128174
3.847;-0.012207
3.848;-0.0119019
3.849;-0.0115967
3.85;-0.0112915
3.851;-0.0112915
3.852;-0.0115967
3.853;-0.0119019
3.854;-0.0128174
3.855;-0.0137329
3.856;-0.0146484
3.857;-0.0152588
3.858;-0.0161743
3.859;-0.0170898
3.86;-0.0177002
3.861;-0.0177002
3.862;-0.017395
3.863;-0.0164795
3.864;-0.015564
3.865;-0.0149536
3.866;-0.0143433
3.867;-0.0140381
3.868;-0.0137329
3.869;-0.0137329
3.87;-0.0131226
3.871;-0.012207
3.872;-0.0109863
3.873;-0.00946045
3.874;-0.00793457
3.875;-0.00671387
3.876;-0.00549316
3.877;-0.00457764
3.878;-0.00335693
3.879;-0.00244141
3.88;-0.00152588
3.881;-0.000915527
3.882;-0.000305176
3.883;0
3.884;0.000610352
3.885;0.00152588
3.886;0.00244141
3.887;0.00335693
3.888;0.00427246
3.889;0.00518799
3.89;0.00640869
3.891;0.00762939
3.892;0.00915527
3.893;0.0106812
3.894;0.0115967
3.895;0.012207
3.896;0.012207
3.897;0.012207
3.898;0.0119019
3.899;0.0115967
3.9;0.0115967
3.901;0.0115967
3.902;0.0119019
3.903;0.0119019
3.904;0.012207
3.905;0.012207
3.906;0.0119019
3.907;0.0112915
3.908;0.0100708
3.909;0.0088501
3.91;0.00793457
3.911;0.00732422
3.912;0.00671387
3.913;0.00579834
3.914;0.00488281
3.915;0.00366211
3.916;0.00305176
3.917;0.00274658
3.918;0.00305176
3.919;0.00366211
3.92;0.00396729
3.921;0.00396729
3.922;0.00335693
3.923;0.00213623
3.924;0.000305176
3.925;-0.0012207
3.926;-0.00244141
3.927;-0.00305176
3.928;-0.00335693
3.929;-0.00366211
3.93;-0.00427246
3.931;-0.00488281
3.932;-0.00579834
3.933;-0.00671387
3.934;-0.00701904
3.935;-0.00671387
3.936;-0.00671387
3.937;-0.00671387
3.938;-0.00732422
3.939;-0.00823975
3.94;-0.00915527
3.941;-0.0100708
3.942;-0.0109863
3.943;-0.0112915
3.944;-0.0115967
3.945;-0.0119019
3.946;-0.0119019
3.947;-0.0125122
3.948;-0.0131226
3.949;-0.0143433
3.95;-0.015564
3.951;-0.017395
3.952;-0.0189209
3.953;-0.0204468
3.954;-0.0216675
3.955;-0.0228882
3.956;-0.0238037
3.957;-0.0247192
3.958;-0.0256348
3.959;-0.0268555
3.96;-0.027771
3.961;-0.0286865
3.962;-0.0292969
3.963;-0.0299072
3.964;-0.0305176
3.965;-0.0311279
3.966;-0.0320435
3.967;-0.0326538
3.968;-0.0332642
3.969;-0.0335693
3.97;-0.0341797
3.971;-0.03479
3.972;-0.0354004
3.973;-0.0360107
3.974;-0.0363159
3.975;-0.0366211
3.976;-0.0372314
3.977;-0.0378418
3.978;-0.0384521
3.979;-0.0390625
3.98;-0.0393677
3.981;-0.0393677
3.982;-0.0390625
3.983;-0.0390625
3.984;-0.0393677
3.985;-0.0396729
3.986;-0.0405884
3.987;-0.0408936
3.988;-0.0415039
3.989;-0.0418091
3.99;-0.0421143
3.991;-0.0424194
3.992;-0.0424194
3.993;-0.0421143
3.994;-0.0415039
3.995;-0.0405884
3.996;-0.0396729
3.997;-0.0390625
3.998;-0.0387573
3.999;-0.0390625
4;-0.039978
4.001;-0.0411987
4.002;-0.0427246
4.003;-0.0439453
4.004;-0.0448608
4.005;-0.045166
4.006;-0.045166
4.007;-0.045166
4.008;-0.0454712
4.009;-0.0463867
4.01;-0.0473022
4.011;-0.0485229
4.012;-0.0500488
4.013;-0.0515747
4.014;-0.0524902
4.015;-0.0534058
4.016;-0.0534058
4.017;-0.0521851
4.018;-0.0491333
4.019;-0.0448608
4.02;-0.0387573
4.021;-0.0311279
4.022;-0.022583
4.023;-0.0131226
4.024;-0.00335693
4.025;0.00701904
4.026;0.0183105
4.027;0.0305176
4.028;0.0442505
4.029;0.0598145
4.03;0.0769043
4.031;0.09552
4.032;0.115051
4.033;0.135193
4.034;0.15564
4.035;0.176392
4.036;0.197754
4.037;0.219727
4.038;0.242004
4.039;0.264282
4.04;0.286255
4.041;0.307007
4.042;0.325623
4.043;0.341492
4.044;0.354004
4.045;0.362244
4.046;0.365601
4.047;0.363464
4.048;0.355835
4.049;0.342102
4.05;0.322876
4.051;0.297546
4.052;0.266724
4.053;0.231323
4.054;0.19165
4.055;0.148621
4.056;0.102539
4.057;0.0543213
4.058;0.00457764
4.059;-0.0448608
4.06;-0.0939941
4.061;-0.141602
4.062;-0.186462
4.063;-0.227966
4.064;-0.264587
4.065;-0.29541
4.066;-0.319824
4.067;-0.336914
4.068;-0.34729
4.069;-0.350952
4.07;-0.348816
4.071;-0.341187
4.072;-0.328674
4.073;-0.312195
4.074;-0.292969
4.075;-0.271606
4.076;-0.248718
4.077;-0.225525
4.078;-0.202332
4.079;-0.179749
4.08;-0.158081
4.081;-0.137329
4.082;-0.118408
4.083;-0.101013
4.084;-0.0860596
4.085;-0.0735474
4.086;-0.0637817
4.087;-0.0567627
4.088;-0.0515747
4.089;-0.0482178
4.09;-0.0460815
4.091;-0.0445557
4.092;-0.043335
4.093;-0.0427246
4.094;-0.0427246
4.095;-0.0427246
4.096;-0.0430298
4.097;-0.0436401
4.098;-0.0445557
4.099;-0.0454712
4.1;-0.0463867
4.101;-0.0473022
4.102;-0.0488281
4.103;-0.050354
4.104;-0.0518799
4.105;-0.0534058
4.106;-0.0546265
4.107;-0.0558472
4.108;-0.0570679
4.109;-0.0576782
4.11;-0.0582886
4.111;-0.0585938
4.112;-0.0588989
4.113;-0.0592041
4.114;-0.0588989
4.115;-0.0582886
4.116;-0.0576782
4.117;-0.0564575
4.118;-0.0552368
4.119;-0.0537109
4.12;-0.0521851
4.121;-0.0509644
4.122;-0.0494385
4.123;-0.0476074
4.124;-0.0457764
4.125;-0.0436401
4.126;-0.0415039
4.127;-0.0384521
4.128;-0.0354004
4.129;-0.0323486
4.13;-0.0296021
4.131;-0.0271606
4.132;-0.0256348
4.133;-0.0247192
4.134;-0.0241089
4.135;-0.0234985
4.136;-0.022583
4.137;-0.0210571
4.138;-0.0192261
4.139;-0.017395
4.14;-0.015564
4.141;-0.0140381
4.142;-0.0134277
4.143;-0.0137329
4.144;-0.0146484
4.145;-0.0158691
4.146;-0.0164795
4.147;-0.0167847
4.148;-0.0164795
4.149;-0.015564
4.15;-0.0140381
4.151;-0.0125122
4.152;-0.0106812
4.153;-0.00946045
4.154;-0.00823975
4.155;-0.00732422
4.156;-0.00671387
4.157;-0.00579834
4.158;-0.00518799
4.159;-0.00457764
4.16;-0.00366211
4.161;-0.00244141
4.162;-0.000915527
4.163;0.000610352
4.164;0.00244141
4.165;0.00366211
4.166;0.00488281
4.167;0.00549316
4.168;0.00549316
4.169;0.00549316
4.17;0.00488281
4.171;0.00396729
4.172;0.00244141
4.173;0.000305176
4.174;-0.00183105
4.175;-0.00366211
4.176;-0.00549316
4.177;-0.00640869
4.178;-0.00701904
4.179;-0.00732422
4.18;-0.00701904
4.181;-0.00640869
4.182;-0.00549316
4.183;-0.00457764
4.184;-0.00396729
4.185;-0.00335693
4.186;-0.00305176
4.187;-0.00305176
4.188;-0.00305176
4.189;-0.00305176
4.19;-0.00305176
4.191;-0.00305176
4.192;-0.00244141
4.193;-0.00213623
4.194;-0.00183105
4.195;-0.00183105
4.196;-0.00213623
4.197;-0.00305176
4.198;-0.00396729
4.199;-0.00488281
4.2;-0.00579834
4.201;-0.00640869
4.202;-0.00671387
4.203;-0.00701904
4.204;-0.00701904
4.205;-0.00732422
4.206;-0.00732422
4.207;-0.00762939
4.208;-0.00762939
4.209;-0.00762939
4.21;-0.00732422
4.211;-0.00701904
4.212;-0.00610352
4.213;-0.00518799
4.214;-0.00366211
4.215;-0.00183105
4.216;0
4.217;0.00244141
4.218;0.00488281
4.219;0.00732422
4.22;0.00946045
4.221;0.0112915
4.222;0.0128174
4.223;0.0134277
4.224;0.0134277
4.225;0.0137329
4.226;0.0137329
4.227;0.0143433
4.228;0.0152588
4.229;0.0161743
4.23;0.0167847
4.231;0.017395
4.232;0.017395
4.233;0.0177002
4.234;0.0180054
4.235;0.0183105
4.236;0.0183105
4.237;0.0183105
4.238;0.0180054
4.239;0.0180054
4.24;0.0183105
4.241;0.0189209
4.242;0.0198364
4.243;0.0210571
4.244;0.0219727
4.245;0.0234985
4.246;0.0253296
4.247;0.027771
4.248;0.0308228
4.249;0.0341797
4.25;0.0378418
4.251;0.0408936
4.252;0.0436401
4.253;0.0457764
4.254;0.0473022
4.255;0.0485229
4.256;0.0491333
4.257;0.050354
4.258;0.0515747
4.259;0.0534058
4.26;0.0552368
4.261;0.0570679
4.262;0.0582886
4.263;0.0588989
4.264;0.0592041
4.265;0.0588989
4.266;0.0582886
4.267;0.0576782
4.268;0.0567627
4.269;0.0561523
4.27;0.0552368
4.271;0.0540161
4.272;0.0531006
4.273;0.0524902
4.274;0.0518799
4.275;0.0512695
4.276;0.050354
4.277;0.0494385
4.278;0.0485229
4.279;0.0476074
4.28;0.0466919
4.281;0.045166
4.282;0.043335
4.283;0.0415039
4.284;0.0393677
4.285;0.0378418
4.286;0.0366211
4.287;0.0357056
4.288;0.0357056
4.289;0.0357056
4.29;0.0360107
4.291;0.0360107
4.292;0.0354004
4.293;0.03479
4.294;0.0332642
4.295;0.0317383
4.296;0.0299072
4.297;0.0283813
4.298;0.0268555
4.299;0.0256348
4.3;0.0244141
4.301;0.0234985
4.302;0.022583
4.303;0.0210571
4.304;0.0192261
4.305;0.0167847
4.306;0.0137329
4.307;0.0106812
4.308;0.00732422
4.309;0.00366211
4.31;0.000305176
4.311;-0.00305176
4.312;-0.00610352
4.313;-0.00915527
4.314;-0.0112915
4.315;-0.0134277
4.316;-0.0149536
4.317;-0.0161743
4.318;-0.017395
4.319;-0.0183105
4.32;-0.0195312
4.321;-0.0204468
4.322;-0.0213623
4.323;-0.0222778
4.324;-0.022583
4.325;-0.022583
4.326;-0.0222778
4.327;-0.0216675
4.328;-0.0213623
4.329;-0.020752
4.33;-0.0201416
4.331;-0.0192261
4.332;-0.0180054
4.333;-0.0164795
4.334;-0.0146484
4.335;-0.0128174
4.336;-0.0115967
4.337;-0.0112915
4.338;-0.0119019
4.339;-0.0128174
4.34;-0.0137329
4.341;-0.0146484
4.342;-0.0149536
4.343;-0.0149536
4.344;-0.0140381
4.345;-0.0131226
4.346;-0.0119019
4.347;-0.010376
4.348;-0.00915527
4.349;-0.00793457
4.35;-0.00671387
4.351;-0.00518799
4.352;-0.00396729
4.353;-0.00244141
4.354;-0.000610352
4.355;0.0012207
4.356;0.00305176
4.357;0.00488281
4.358;0.00701904
4.359;0.00946045
4.36;0.0119019
4.361;0.0140381
4.362;0.0158691
4.363;0.0170898
4.364;0.0177002
4.365;0.017395
4.366;0.0164795
4.367;0.0152588
4.368;0.0143433
4.369;0.0134277
4.37;0.0125122
4.371;0.012207
4.372;0.0115967
4.373;0.0112915
4.374;0.0109863
4.375;0.010376
4.376;0.00946045
4.377;0.0088501
4.378;0.00823975
4.379;0.00793457
4.38;0.00762939
4.381;0.00732422
4.382;0.00701904
4.383;0.00701904
4.384;0.00701904
4.385;0.00762939
4.386;0.00823975
4.387;0.00915527
4.388;0.00976562
4.389;0.0100708
4.39;0.0100708
4.391;0.00946045
4.392;0.0088501
4.393;0.00823975
4.394;0.00823975
4.395;0.0088501
4.396;0.00976562
4.397;0.010376
4.398;0.0109863
4.399;0.0112915
4.4;0.0112915
4.401;0.0115967
4.402;0.0119019
4.403;0.0125122
4.404;0.0134277
4.405;0.0146484
4.406;0.0158691
4.407;0.0167847
4.408;0.017395
4.409;0.0180054
4.41;0.0186157
4.411;0.0189209
4.412;0.0192261
4.413;0.0192261
4.414;0.0192261
4.415;0.0189209
4.416;0.0183105
4.417;0.0170898
4.418;0.0158691
4.419;0.0146484
4.42;0.0140381
4.421;0.0134277
4.422;0.0128174
4.423;0.0119019
4.424;0.0109863
4.425;0.0100708
4.426;0.00915527
4.427;0.00854492
4.428;0.00823975
4.429;0.00823975
4.43;0.00854492
4.431;0.00915527
4.432;0.0100708
4.433;0.010376
4.434;0.0109863
4.435;0.0115967
4.436;0.0119019
4.437;0.0125122
4.438;0.0128174
4.439;0.0131226
4.44;0.0131226
4.441;0.0134277
4.442;0.0137329
4.443;0.0140381
4.444;0.0143433
4.445;0.0143433
4.446;0.0140381
4.447;0.0131226
4.448;0.0119019
4.449;0.0106812
4.45;0.00976562
4.451;0.00854492
4.452;0.00793457
4.453;0.00793457
4.454;0.00823975
4.455;0.00915527
4.456;0.0100708
4.457;0.0109863
4.458;0.0119019
4.459;0.012207
4.46;0.0128174
4.461;0.0131226
4.462;0.0137329
4.463;0.0146484
4.464;0.0152588
4.465;0.0158691
4.466;0.0164795
4.467;0.0170898
4.468;0.0180054
4.469;0.0192261
4.47;0.0204468
4.471;0.0216675
4.472;0.022583
4.473;0.0228882
4.474;0.022583
4.475;0.0219727
4.476;0.0210571
4.477;0.0204468
4.478;0.0204468
4.479;0.0210571
4.48;0.0219727
4.481;0.0234985
4.482;0.0244141
4.483;0.0250244
4.484;0.0250244
4.485;0.0247192
4.486;0.0241089
4.487;0.0234985
4.488;0.0231934
4.489;0.0231934
4.49;0.0231934
4.491;0.022583
4.492;0.0219727
4.493;0.0210571
4.494;0.0201416
4.495;0.0192261
4.496;0.0186157
4.497;0.0180054
4.498;0.0177002
4.499;0.0177002
4.5;0.0170898
4.501;0.0167847
4.502;0.0158691
4.503;0.0146484
4.504;0.0134277
4.505;0.012207
4.506;0.0109863
4.507;0.00976562
4.508;0.00823975
4.509;0.00640869
4.51;0.00457764
4.511;0.00305176
4.512;0.00183105
4.513;0.00152588
4.514;0.00152588
4.515;0.00183105
4.516;0.00183105
4.517;0.00183105
4.518;0.00152588
4.519;0.000610352
4.52;0
4.521;-0.000610352
4.522;-0.000610352
4.523;-0.000305176
4.524;0.000305176
4.525;0.00183105
4.526;0.00335693
4.527;0.00488281
4.528;0.00640869
4.529;0.00732422
4.53;0.00762939
4.531;0.00732422
4.532;0.00671387
4.533;0.00579834
4.534;0.00518799
4.535;0.00427246
4.536;0.00366211
4.537;0.00335693
4.538;0.00305176
4.539;0.00274658
4.54;0.00183105
4.541;0.000610352
4.542;-0.0012207
4.543;-0.00305176
4.544;-0.00457764
4.545;-0.00610352
4.546;-0.00732422
4.547;-0.00793457
4.548;-0.00793457
4.549;-0.00793457
4.55;-0.00762939
4.551;-0.00732422
4.552;-0.00732422
4.553;-0.00701904
4.554;-0.00701904
4.555;-0.00671387
4.556;-0.00671387
4.557;-0.00671387
4.558;-0.00640869
4.559;-0.00610352
4.56;-0.00610352
4.561;-0.00640869
4.562;-0.00671387
4.563;-0.00732422
4.564;-0.00762939
4.565;-0.00762939
4.566;-0.00701904
4.567;-0.00610352
4.568;-0.00518799
4.569;-0.00427246
4.57;-0.00305176
4.571;-0.00183105
4.572;-0.000915527
4.573;0
4.574;0.000305176
4.575;0.000305176
4.576;0.000305176
4.577;0.000610352
4.578;0.000610352
4.579;0.0012207
4.58;0.00244141
4.581;0.00366211
4.582;0.00549316
4.583;0.00732422
4.584;0.00976562
4.585;0.012207
4.586;0.0146484
4.587;0.0164795
4.588;0.0180054
4.589;0.0189209
4.59;0.0195312
4.591;0.0204468
4.592;0.0213623
4.593;0.022583
4.594;0.0241089
4.595;0.0256348
4.596;0.0271606
4.597;0.0286865
4.598;0.0296021
4.599;0.0299072
4.6;0.0299072
4.601;0.0296021
4.602;0.0289917
4.603;0.0283813
4.604;0.0274658
4.605;0.0268555
4.606;0.0259399
4.607;0.0247192
4.608;0.0231934
4.609;0.0216675
4.61;0.0204468
4.611;0.0195312
4.612;0.0195312
4.613;0.0204468
4.614;0.0213623
4.615;0.0228882
4.616;0.0247192
4.617;0.0265503
4.618;0.0286865
4.619;0.0308228
4.62;0.032959
4.621;0.0354004
4.622;0.0378418
4.623;0.0405884
4.624;0.043335
4.625;0.0460815
4.626;0.0488281
4.627;0.0515747
4.628;0.0540161
4.629;0.0558472
4.63;0.057373
4.631;0.0585938
4.632;0.0592041
4.633;0.0588989
4.634;0.0576782
4.635;0.0561523
4.636;0.0543213
4.637;0.0521851
4.638;0.050354
4.639;0.0485229
4.64;0.0473022
4.641;0.0457764
4.642;0.0442505
4.643;0.0427246
4.644;0.0405884
4.645;0.0384521
4.646;0.0366211
4.647;0.0344849
4.648;0.0332642
4.649;0.0323486
4.65;0.0317383
4.651;0.0317383
4.652;0.0320435
4.653;0.032959
4.654;0.0344849
4.655;0.0363159
4.656;0.038147
4.657;0.039978
4.658;0.0415039
4.659;0.0430298
4.66;0.0439453
4.661;0.045166
4.662;0.0463867
4.663;0.0479126
4.664;0.0494385
4.665;0.0518799
4.666;0.0540161
4.667;0.0561523
4.668;0.0576782
4.669;0.0588989
4.67;0.0595093
4.671;0.0601196
4.672;0.0604248
4.673;0.0604248
4.674;0.0598145
4.675;0.0585938
4.676;0.057373
4.677;0.0558472
4.678;0.0543213
4.679;0.0531006
4.68;0.0518799
4.681;0.0509644
4.682;0.050354
4.683;0.0497437
4.684;0.0491333
4.685;0.0482178
4.686;0.0473022
4.687;0.0460815
4.688;0.0454712
4.689;0.0445557
4.69;0.0442505
4.691;0.0439453
4.692;0.0442505
4.693;0.0442505
4.694;0.0445557
4.695;0.0454712
4.696;0.0463867
4.697;0.0476074
4.698;0.0485229
4.699;0.0497437
4.7;0.0506592
4.701;0.0515747
4.702;0.0521851
4.703;0.0518799
4.704;0.0512695
4.705;0.050354
4.706;0.0488281
4.707;0.0476074
4.708;0.0466919
4.709;0.0460815
4.71;0.0457764
4.711;0.0454712
4.712;0.0457764
4.713;0.0457764
4.714;0.0457764
4.715;0.0457764
4.716;0.0454712
4.717;0.045166
4.718;0.0448608
4.719;0.0442505
4.72;0.0436401
4.721;0.0436401
4.722;0.0436401
4.723;0.0439453
4.724;0.0442505
4.725;0.0439453
4.726;0.0430298
4.727;0.0418091
4.728;0.0402832
4.729;0.0390625
4.73;0.0378418
4.731;0.0369263
4.732;0.0363159
4.733;0.0354004
4.734;0.03479
4.735;0.0341797
4.736;0.0332642
4.737;0.0323486
4.738;0.0311279
4.739;0.0302124
4.74;0.0292969
4.741;0.0289917
4.742;0.0296021
4.743;0.0305176
4.744;0.0314331
4.745;0.0323486
4.746;0.032959
4.747;0.0338745
4.748;0.03479
4.749;0.0357056
4.75;0.0369263
4.751;0.0378418
4.752;0.038147
4.753;0.0378418
4.754;0.0369263
4.755;0.0354004
4.756;0.0332642
4.757;0.0311279
4.758;0.0296021
4.759;0.0280762
4.76;0.0268555
4.761;0.0253296
4.762;0.0238037
4.763;0.0219727
4.764;0.0198364
4.765;0.0180054
4.766;0.0158691
4.767;0.0137329
4.768;0.0115967
4.769;0.00946045
4.77;0.00701904
4.771;0.00457764
4.772;0.00183105
4.773;-0.000915527
4.774;-0.00335693
4.775;-0.00488281
4.776;-0.00579834
4.777;-0.00640869
4.778;-0.00671387
4.779;-0.00793457
4.78;-0.00946045
4.781;-0.0109863
4.782;-0.012207
4.783;-0.0128174
4.784;-0.0131226
4.785;-0.0134277
4.786;-0.0134277
4.787;-0.0134277
4.788;-0.0137329
4.789;-0.0140381
4.79;-0.0140381
4.791;-0.0146484
4.792;-0.0146484
4.793;-0.0149536
4.794;-0.0149536
4.795;-0.0146484
4.796;-0.0140381
4.797;-0.0131226
4.798;-0.0128174
4.799;-0.0125122
4.8;-0.0128174
4.801;-0.0137329
4.802;-0.0149536
4.803;-0.0164795
4.804;-0.0183105
4.805;-0.0195312
4.806;-0.020752
4.807;-0.0216675
4.808;-0.022583
4.809;-0.0231934
4.81;-0.0238037
4.811;-0.0241089
4.812;-0.0247192
4.813;-0.0256348
4.814;-0.0271606
4.815;-0.0286865
4.816;-0.0305176
4.817;-0.0323486
4.818;-0.0335693
4.819;-0.0344849
4.82;-0.0354004
4.821;-0.0363159
4.822;-0.0372314
4.823;-0.038147
4.824;-0.0387573
4.825;-0.0393677
4.826;-0.0396729
4.827;-0.0396729
4.828;-0.0393677
4.829;-0.0387573
4.83;-0.0375366
4.831;-0.0357056
4.832;-0.0335693
4.833;-0.0314331
4.834;-0.0292969
4.835;-0.0268555
4.836;-0.0244141
4.837;-0.0219727
4.838;-0.0195312
4.839;-0.017395
4.84;-0.015564
4.841;-0.0137329
4.842;-0.012207
4.843;-0.0109863
4.844;-0.00976562
4.845;-0.00915527
4.846;-0.0088501
4.847;-0.00915527
4.848;-0.00946045
4.849;-0.0100708
4.85;-0.0112915
4.851;-0.0128174
4.852;-0.0143433
4.853;-0.0158691
4.854;-0.0177002
4.855;-0.0192261
4.856;-0.0204468
4.857;-0.0210571
4.858;-0.0210571
4.859;-0.020752
4.86;-0.0201416
4.861;-0.0195312
4.862;-0.0189209
4.863;-0.0180054
4.864;-0.0170898
4.865;-0.0158691
4.866;-0.0146484
4.867;-0.0137329
4.868;-0.0134277
4.869;-0.0137329
4.87;-0.0140381
4.871;-0.0140381
4.872;-0.0140381
4.873;-0.0134277
4.874;-0.0125122
4.875;-0.0112915
4.876;-0.00976562
4.877;-0.00732422
4.878;-0.00427246
4.879;-0.000610352
4.88;0.00427246
4.881;0.0100708
4.882;0.0170898
4.883;0.0247192
4.884;0.0332642
4.885;0.0430298
4.886;0.0540161
4.887;0.0668335
4.888;0.0811768
4.889;0.0976562
4.89;0.115967
4.891;0.135498
4.892;0.15564
4.893;0.176392
4.894;0.197449
4.895;0.218811
4.896;0.240784
4.897;0.263062
4.898;0.28595
4.899;0.308533
4.9;0.331116
4.901;0.352173
4.902;0.371094
4.903;0.386658
4.904;0.397949
4.905;0.404053
4.906;0.404053
4.907;0.397644
4.908;0.384827
4.909;0.365601
4.91;0.339661
4.911;0.307312
4.912;0.270081
4.913;0.228577
4.914;0.184021
4.915;0.136414
4.916;0.0869751
4.917;0.0354004
4.918;-0.0170898
4.919;-0.0695801
4.92;-0.12085
4.921;-0.169678
4.922;-0.214844
4.923;-0.255432
4.924;-0.290222
4.925;-0.318604
4.926;-0.339966
4.927;-0.354309
4.928;-0.361328
4.929;-0.361633
4.93;-0.356445
4.931;-0.345764
4.932;-0.330811
4.933;-0.31189
4.934;-0.289917
4.935;-0.265808
4.936;-0.240784
4.937;-0.216064
4.938;-0.192261
4.939;-0.169983
4.94;-0.149841
4.941;-0.131226
4.942;-0.115051
4.943;-0.101624
4.944;-0.0906372
4.945;-0.0820923
4.946;-0.0762939
4.947;-0.072937
4.948;-0.071106
4.949;-0.0701904
4.95;-0.0701904
4.951;-0.0708008
4.952;-0.0717163
4.953;-0.072937
4.954;-0.0738525
4.955;-0.0747681
4.956;-0.0753784
4.957;-0.0759888
4.958;-0.0765991
4.959;-0.0765991
4.96;-0.0762939
4.961;-0.0753784
4.962;-0.0741577
4.963;-0.072937
4.964;-0.0720215
4.965;-0.071106
4.966;-0.0704956
4.967;-0.0701904
4.968;-0.0701904
4.969;-0.0704956
4.97;-0.0708008
4.971;-0.0714111
4.972;-0.0717163
4.973;-0.0714111
4.974;-0.071106
4.975;-0.0708008
4.976;-0.0708008
4.977;-0.071106
4.978;-0.0717163
4.979;-0.0717163
4.98;-0.0714111
4.981;-0.0704956
4.982;-0.0692749
4.983;-0.0683594
4.984;-0.0671387
4.985;-0.0653076
4.986;-0.062561
4.987;-0.0588989
4.988;-0.0546265
4.989;-0.050354
4.99;-0.0460815
4.991;-0.0424194
4.992;-0.0390625
4.993;-0.0363159
4.994;-0.0341797
4.995;-0.0323486
4.996;-0.0305176
4.997;-0.0289917
4.998;-0.0280762
4.999;-0.0274658
5;-0.0274658
5.001;-0.0280762
5.002;-0.0292969
5.003;-0.0305176
5.004;-0.0323486
5.005;-0.0341797
5.006;-0.0357056
5.007;-0.0372314
5.008;-0.0384521
5.009;-0.0387573
5.01;-0.0387573
5.011;-0.038147
5.012;-0.0375366
5.013;-0.0369263
5.014;-0.0366211
5.015;-0.0366211
5.016;-0.0363159
5.017;-0.0363159
5.018;-0.0354004
5.019;-0.0341797
5.02;-0.0326538
5.021;-0.0311279
5.022;-0.0302124
5.023;-0.0296021
5.024;-0.0289917
5.025;-0.0280762
5.026;-0.0271606
5.027;-0.0259399
5.028;-0.0244141
5.029;-0.0231934
5.03;-0.0222778
5.031;-0.0216675
5.032;-0.0210571
5.033;-0.0201416
5.034;-0.0192261
5.035;-0.0183105
5.036;-0.017395
5.037;-0.015564
5.038;-0.0134277
5.039;-0.0112915
5.04;-0.00915527
5.041;-0.00701904
5.042;-0.00488281
5.043;-0.00335693
5.044;-0.00213623
5.045;-0.000915527
5.046;-0.000305176
5.047;0.000305176
5.048;0.000305176
5.049;0
5.05;-0.000305176
5.051;-0.000915527
5.052;-0.0012207
5.053;-0.00152588
5.054;-0.00213623
5.055;-0.00305176
5.056;-0.00396729
5.057;-0.00457764
5.058;-0.00518799
5.059;-0.00549316
5.06;-0.00518799
5.061;-0.00518799
5.062;-0.00488281
5.063;-0.00457764
5.064;-0.00396729
5.065;-0.00305176
5.066;-0.00183105
5.067;-0.000305176
5.068;0.00152588
5.069;0.00335693
5.07;0.00488281
5.071;0.00579834
5.072;0.00671387
5.073;0.00762939
5.074;0.00823975
5.075;0.00854492
5.076;0.00854492
5.077;0.0088501
5.078;0.0088501
5.079;0.00915527
5.08;0.00946045
5.081;0.00946045
5.082;0.00976562
5.083;0.0100708
5.084;0.0106812
5.085;0.0115967
5.086;0.0125122
5.087;0.0140381
5.088;0.0158691
5.089;0.0177002
5.09;0.0192261
5.091;0.020752
5.092;0.0219727
5.093;0.0231934
5.094;0.0241089
5.095;0.0256348
5.096;0.0271606
5.097;0.0286865
5.098;0.0302124
5.099;0.0314331
5.1;0.0326538
5.101;0.0335693
5.102;0.0344849
5.103;0.03479
5.104;0.03479
5.105;0.0341797
5.106;0.0332642
5.107;0.0323486
5.108;0.0314331
5.109;0.0305176
5.11;0.0299072
5.111;0.0299072
5.112;0.0299072
5.113;0.0305176
5.114;0.0314331
5.115;0.0326538
5.116;0.0338745
5.117;0.03479
5.118;0.0360107
5.119;0.0375366
5.12;0.0393677
5.121;0.0415039
5.122;0.0436401
5.123;0.0454712
5.124;0.0473022
5.125;0.0488281
5.126;0.050354
5.127;0.0515747
5.128;0.0524902
5.129;0.0524902
5.13;0.0524902
5.131;0.0524902
5.132;0.0524902
5.133;0.0524902
5.134;0.0531006
5.135;0.0534058
5.136;0.0534058
5.137;0.0527954
5.138;0.0515747
5.139;0.0500488
5.14;0.0482178
5.141;0.0466919
5.142;0.045166
5.143;0.0442505
5.144;0.043335
5.145;0.0427246
5.146;0.0418091
5.147;0.0411987
5.148;0.0405884
5.149;0.039978
5.15;0.0396729
5.151;0.0390625
5.152;0.0384521
5.153;0.0372314
5.154;0.0354004
5.155;0.0338745
5.156;0.0323486
5.157;0.0314331
5.158;0.0308228
5.159;0.0299072
5.16;0.0283813
5.161;0.0268555
5.162;0.0247192
5.163;0.0222778
5.164;0.0201416
5.165;0.0180054
5.166;0.015564
5.167;0.0128174
5.168;0.00946045
5.169;0.00518799
5.17;0.000305176
5.171;-0.00518799
5.172;-0.010376
5.173;-0.0149536
5.174;-0.0189209
5.175;-0.0222778
5.176;-0.0253296
5.177;-0.0283813
5.178;-0.0311279
5.179;-0.0341797
5.18;-0.0369263
5.181;-0.0393677
5.182;-0.0415039
5.183;-0.0427246
5.184;-0.0439453
5.185;-0.0445557
5.186;-0.045166
5.187;-0.0460815
5.188;-0.0473022
5.189;-0.0488281
5.19;-0.0506592
5.191;-0.0524902
5.192;-0.0540161
5.193;-0.0549316
5.194;-0.0552368
5.195;-0.0558472
5.196;-0.0561523
5.197;-0.0564575
5.198;-0.0570679
5.199;-0.0582886
5.2;-0.0601196
5.201;-0.062561
5.202;-0.0653076
5.203;-0.067749
5.204;-0.0695801
5.205;-0.0714111
5.206;-0.0720215
5.207;-0.0723267
5.208;-0.0717163
5.209;-0.0704956
5.21;-0.0692749
5.211;-0.0680542
5.212;-0.0668335
5.213;-0.065918
5.214;-0.0650024
5.215;-0.0640869
5.216;-0.0634766
5.217;-0.0631714
5.218;-0.0628662
5.219;-0.0622559
5.22;-0.0616455
5.221;-0.06073
5.222;-0.0601196
5.223;-0.0595093
5.224;-0.0588989
5.225;-0.0579834
5.226;-0.057373
5.227;-0.0567627
5.228;-0.0561523
5.229;-0.055542
5.23;-0.0546265
5.231;-0.0540161
5.232;-0.0531006
5.233;-0.0527954
5.234;-0.0531006
5.235;-0.0537109
5.236;-0.0543213
5.237;-0.0543213
5.238;-0.0540161
5.239;-0.0531006
5.24;-0.0515747
5.241;-0.0497437
5.242;-0.0476074
5.243;-0.045166
5.244;-0.0430298
5.245;-0.0411987
5.246;-0.0396729
5.247;-0.0390625
5.248;-0.0384521
5.249;-0.0384521
5.25;-0.0384521
5.251;-0.0384521
5.252;-0.0384521
5.253;-0.0384521
5.254;-0.038147
5.255;-0.0375366
5.256;-0.0369263
5.257;-0.0366211
5.258;-0.0360107
5.259;-0.0354004
5.26;-0.0350952
5.261;-0.03479
5.262;-0.03479
5.263;-0.03479
5.264;-0.03479
5.265;-0.0344849
5.266;-0.0338745
5.267;-0.0326538
5.268;-0.0314331
5.269;-0.0296021
5.27;-0.027771
5.271;-0.0256348
5.272;-0.0234985
5.273;-0.0210571
5.274;-0.0192261
5.275;-0.0177002
5.276;-0.0170898
5.277;-0.0170898
5.278;-0.0180054
5.279;-0.0189209
5.28;-0.0201416
5.281;-0.0210571
5.282;-0.0213623
5.283;-0.0213623
5.284;-0.0216675
5.285;-0.0219727
5.286;-0.0228882
5.287;-0.0244141
5.288;-0.0268555
5.289;-0.0292969
5.29;-0.0317383
5.291;-0.0335693
5.292;-0.03479
5.293;-0.0354004
5.294;-0.0357056
5.295;-0.0360107
5.296;-0.0360107
5.297;-0.0360107
5.298;-0.0360107
5.299;-0.0360107
5.3;-0.0354004
5.301;-0.03479
5.302;-0.0341797
5.303;-0.0332642
5.304;-0.0326538
5.305;-0.0320435
5.306;-0.0317383
5.307;-0.0314331
5.308;-0.0314331
5.309;-0.0320435
5.31;-0.0326538
5.311;-0.0332642
5.312;-0.0332642
5.313;-0.0332642
5.314;-0.0326538
5.315;-0.0320435
5.316;-0.0317383
5.317;-0.0317383
5.318;-0.0320435
5.319;-0.032959
5.32;-0.0338745
5.321;-0.03479
5.322;-0.03479
5.323;-0.0341797
5.324;-0.032959
5.325;-0.0314331
5.326;-0.0296021
5.327;-0.0280762
5.328;-0.0265503
5.329;-0.0253296
5.33;-0.0241089
5.331;-0.0231934
5.332;-0.022583
5.333;-0.0213623
5.334;-0.0201416
5.335;-0.0186157
5.336;-0.0164795
5.337;-0.0146484
5.338;-0.0131226
5.339;-0.0119019
5.34;-0.0109863
5.341;-0.010376
5.342;-0.00915527
5.343;-0.00823975
5.344;-0.00732422
5.345;-0.00671387
5.346;-0.00671387
5.347;-0.00671387
5.348;-0.00732422
5.349;-0.00762939
5.35;-0.00823975
5.351;-0.00823975
5.352;-0.00823975
5.353;-0.00823975
5.354;-0.00793457
5.355;-0.00732422
5.356;-0.00671387
5.357;-0.00610352
5.358;-0.00549316
5.359;-0.00488281
5.36;-0.00457764
5.361;-0.00427246
5.362;-0.00335693
5.363;-0.00213623
5.364;-0.0012207
5.365;0
5.366;0.00152588
5.367;0.00335693
5.368;0.00549316
5.369;0.00793457
5.37;0.0100708
5.371;0.0119019
5.372;0.0137329
5.373;0.0152588
5.374;0.0164795
5.375;0.017395
5.376;0.0180054
5.377;0.0180054
5.378;0.0183105
5.379;0.0186157
5.38;0.0195312
5.381;0.0201416
5.382;0.0204468
5.383;0.020752
5.384;0.0204468
5.385;0.0195312
5.386;0.0186157
5.387;0.0177002
5.388;0.0167847
5.389;0.0161743
5.39;0.0152588
5.391;0.0140381
5.392;0.0128174
5.393;0.0112915
5.394;0.00915527
5.395;0.00732422
5.396;0.00579834
5.397;0.00549316
5.398;0.00610352
5.399;0.00793457
5.4;0.0100708
5.401;0.0125122
5.402;0.0146484
5.403;0.0161743
5.404;0.0167847
5.405;0.0170898
5.406;0.017395
5.407;0.0180054
5.408;0.0189209
5.409;0.020752
5.41;0.022583
5.411;0.0247192
5.412;0.0268555
5.413;0.0289917
5.414;0.0305176
5.415;0.0314331
5.416;0.0317383
5.417;0.0314331
5.418;0.0308228
5.419;0.0296021
5.42;0.0283813
5.421;0.0268555
5.422;0.0256348
5.423;0.0241089
5.424;0.022583
5.425;0.0213623
5.426;0.0201416
5.427;0.0195312
5.428;0.0192261
5.429;0.0192261
5.43;0.0195312
5.431;0.0198364
5.432;0.0204468
5.433;0.0210571
5.434;0.0213623
5.435;0.0213623
5.436;0.0210571
5.437;0.020752
5.438;0.020752
5.439;0.0213623
5.44;0.0219727
5.441;0.022583
5.442;0.0231934
5.443;0.0231934
5.444;0.0231934
5.445;0.0228882
5.446;0.0222778
5.447;0.0210571
5.448;0.0195312
5.449;0.0177002
5.45;0.0161743
5.451;0.0149536
5.452;0.0140381
5.453;0.0134277
5.454;0.0131226
5.455;0.0131226
5.456;0.0128174
5.457;0.0125122
5.458;0.012207
5.459;0.0115967
5.46;0.0112915
5.461;0.0106812
5.462;0.0106812
5.463;0.010376
5.464;0.010376
5.465;0.0100708
5.466;0.00976562
5.467;0.00976562
5.468;0.00946045
5.469;0.0088501
5.47;0.00854492
5.471;0.00793457
5.472;0.00732422
5.473;0.00701904
5.474;0.00579834
5.475;0.00427246
5.476;0.00183105
5.477;-0.000610352
5.478;-0.00274658
5.479;-0.00396729
5.48;-0.00488281
5.481;-0.00518799
5.482;-0.00518799
5.483;-0.00518799
5.484;-0.00518799
5.485;-0.00518799
5.486;-0.00488281
5.487;-0.00488281
5.488;-0.00457764
5.489;-0.00457764
5.49;-0.00427246
5.491;-0.00427246
5.492;-0.00396729
5.493;-0.00366211
5.494;-0.00305176
5.495;-0.00274658
5.496;-0.00244141
5.497;-0.00183105
5.498;-0.00152588
5.499;-0.0012207
5.5;-0.000610352
5.501;-0.000305176
5.502;-0.000305176
5.503;-0.000915527
5.504;-0.0012207
5.505;-0.00183105
5.506;-0.00183105
5.507;-0.00213623
5.508;-0.00213623
5.509;-0.00213623
5.51;-0.00183105
5.511;-0.00183105
5.512;-0.00152588
5.513;-0.00152588
5.514;-0.00152588
5.515;-0.0012207
5.516;-0.0012207
5.517;-0.00152588
5.518;-0.00183105
5.519;-0.00213623
5.52;-0.00274658
5.521;-0.00366211
5.522;-0.00457764
5.523;-0.00579834
5.524;-0.00671387
5.525;-0.00762939
5.526;-0.00823975
5.527;-0.00854492
5.528;-0.0088501
5.529;-0.0088501
5.53;-0.00854492
5.531;-0.00823975
5.532;-0.00762939
5.533;-0.00701904
5.534;-0.00610352
5.535;-0.00488281
5.536;-0.00335693
5.537;-0.00152588
5.538;0.000305176
5.539;0.00213623
5.54;0.00366211
5.541;0.00488281
5.542;0.00579834
5.543;0.00610352
5.544;0.00610352
5.545;0.00610352
5.546;0.00640869
5.547;0.00732422
5.548;0.00854492
5.549;0.00915527
5.55;0.00946045
5.551;0.00915527
5.552;0.00854492
5.553;0.00823975
5.554;0.00823975
5.555;0.00854492
5.556;0.00976562
5.557;0.0112915
5.558;0.0131226
5.559;0.0146484
5.56;0.0161743
5.561;0.0180054
5.562;0.0198364
5.563;0.0219727
5.564;0.0241089
5.565;0.0262451
5.566;0.0283813
5.567;0.0302124
5.568;0.0320435
5.569;0.0338745
5.57;0.0350952
5.571;0.0366211
5.572;0.0375366
5.573;0.038147
5.574;0.0387573
5.575;0.0393677
5.576;0.039978
5.577;0.0405884
5.578;0.0415039
5.579;0.0424194
5.58;0.0430298
5.581;0.0436401
5.582;0.0439453
5.583;0.0439453
5.584;0.0439453
5.585;0.0442505
5.586;0.0445557
5.587;0.0448608
5.588;0.045166
5.589;0.0448608
5.59;0.0445557
5.591;0.0442505
5.592;0.0436401
5.593;0.043335
5.594;0.0430298
5.595;0.0430298
5.596;0.0427246
5.597;0.0427246
5.598;0.0427246
5.599;0.0424194
5.6;0.0421143
5.601;0.0411987
5.602;0.0402832
5.603;0.0393677
5.604;0.0387573
5.605;0.0387573
5.606;0.0396729
5.607;0.0408936
5.608;0.0424194
5.609;0.0439453
5.61;0.045166
5.611;0.0460815
5.612;0.0466919
5.613;0.0469971
5.614;0.0476074
5.615;0.0482178
5.616;0.0488281
5.617;0.0491333
5.618;0.0494385
5.619;0.0497437
5.62;0.0500488
5.621;0.0497437
5.622;0.0494385
5.623;0.0485229
5.624;0.0476074
5.625;0.0466919
5.626;0.0457764
5.627;0.045166
5.628;0.0442505
5.629;0.0436401
5.63;0.043335
5.631;0.043335
5.632;0.043335
5.633;0.0427246
5.634;0.0415039
5.635;0.039978
5.636;0.0387573
5.637;0.0375366
5.638;0.0375366
5.639;0.038147
5.64;0.0393677
5.641;0.0408936
5.642;0.0427246
5.643;0.0445557
5.644;0.0463867
5.645;0.0476074
5.646;0.0485229
5.647;0.0488281
5.648;0.0488281
5.649;0.0485229
5.65;0.0482178
5.651;0.0482178
5.652;0.0482178
5.653;0.0488281
5.654;0.0491333
5.655;0.0497437
5.656;0.0497437
5.657;0.0494385
5.658;0.0485229
5.659;0.0479126
5.66;0.0469971
5.661;0.0457764
5.662;0.0448608
5.663;0.0436401
5.664;0.0421143
5.665;0.0408936
5.666;0.039978
5.667;0.0390625
5.668;0.0384521
5.669;0.038147
5.67;0.0375366
5.671;0.0372314
5.672;0.0366211
5.673;0.0354004
5.674;0.0341797
5.675;0.032959
5.676;0.0317383
5.677;0.0305176
5.678;0.0289917
5.679;0.0274658
5.68;0.0256348
5.681;0.0234985
5.682;0.0216675
5.683;0.0198364
5.684;0.0186157
5.685;0.0180054
5.686;0.0180054
5.687;0.0183105
5.688;0.0186157
5.689;0.0186157
5.69;0.0180054
5.691;0.0170898
5.692;0.0164795
5.693;0.0158691
5.694;0.015564
5.695;0.015564
5.696;0.0158691
5.697;0.0161743
5.698;0.0164795
5.699;0.0164795
5.7;0.0164795
5.701;0.0164795
5.702;0.0161743
5.703;0.0152588
5.704;0.0137329
5.705;0.0115967
5.706;0.00946045
5.707;0.00732422
5.708;0.00549316
5.709;0.00427246
5.71;0.00274658
5.711;0.000915527
5.712;-0.000915527
5.713;-0.00305176
5.714;-0.00457764
5.715;-0.00610352
5.716;-0.00732422
5.717;-0.00823975
5.718;-0.0088501
5.719;-0.00946045
5.72;-0.0100708
5.721;-0.010376
5.722;-0.010376
5.723;-0.0106812
5.724;-0.010376
5.725;-0.010376
5.726;-0.00976562
5.727;-0.00915527
5.728;-0.00854492
5.729;-0.00823975
5.73;-0.00793457
5.731;-0.00823975
5.732;-0.00823975
5.733;-0.00793457
5.734;-0.00762939
5.735;-0.00701904
5.736;-0.00610352
5.737;-0.00549316
5.738;-0.00488281
5.739;-0.00427246
5.74;-0.00396729
5.741;-0.00396729
5.742;-0.00427246
5.743;-0.00457764
5.744;-0.00549316
5.745;-0.00671387
5.746;-0.00793457
5.747;-0.0088501
5.748;-0.00946045
5.749;-0.0100708
5.75;-0.0100708
5.751;-0.010376
5.752;-0.010376
5.753;-0.0106812
5.754;-0.0109863
5.755;-0.0109863
5.756;-0.0109863
5.757;-0.0109863
5.758;-0.0112915
5.759;-0.0115967
5.76;-0.0119019
5.761;-0.012207
5.762;-0.0125122
5.763;-0.012207
5.764;-0.0115967
5.765;-0.0106812
5.766;-0.00976562
5.767;-0.00915527
5.768;-0.00854492
5.769;-0.00793457
5.77;-0.00732422
5.771;-0.00640869
5.772;-0.00579834
5.773;-0.00549316
5.774;-0.00518799
5.775;-0.00488281
5.776;-0.00457764
5.777;-0.00366211
5.778;-0.00274658
5.779;-0.00183105
5.78;-0.000915527
5.781;0
5.782;0.000610352
5.783;0.00152588
5.784;0.00244141
5.785;0.00335693
5.786;0.00396729
5.787;0.00427246
5.788;0.00457764
5.789;0.00457764
5.79;0.00488281
5.791;0.00610352
5.792;0.00793457
5.793;0.0100708
5.794;0.012207
5.795;0.0143433
5.796;0.0161743
5.797;0.0177002
5.798;0.0189209
5.799;0.0198364
5.8;0.0204468
5.801;0.0204468
5.802;0.0201416
5.803;0.0195312
5.804;0.0192261
5.805;0.0189209
5.806;0.0186157
5.807;0.0183105
5.808;0.0180054
5.809;0.0170898
5.81;0.0161743
5.811;0.0149536
5.812;0.0134277
5.813;0.012207
5.814;0.0109863
5.815;0.00976562
5.816;0.0088501
5.817;0.00762939
5.818;0.00671387
5.819;0.00610352
5.82;0.00610352
5.821;0.00610352
5.822;0.00671387
5.823;0.00762939
5.824;0.00915527
5.825;0.0106812
5.826;0.0128174
5.827;0.0146484
5.828;0.0161743
5.829;0.0170898
5.83;0.017395
5.831;0.0170898
5.832;0.0161743
5.833;0.015564
5.834;0.0146484
5.835;0.0137329
5.836;0.0128174
5.837;0.0112915
5.838;0.00946045
5.839;0.00793457
5.84;0.00640869
5.841;0.00518799
5.842;0.00396729
5.843;0.00274658
5.844;0.00213623
5.845;0.0012207
5.846;0.000915527
5.847;0.0012207
5.848;0.00244141
5.849;0.00457764
5.85;0.00701904
5.851;0.00976562
5.852;0.0125122
5.853;0.0152588
5.854;0.0177002
5.855;0.0201416
5.856;0.0228882
5.857;0.0256348
5.858;0.0289917
5.859;0.0323486
5.86;0.0354004
5.861;0.038147
5.862;0.0405884
5.863;0.0424194
5.864;0.043335
5.865;0.0442505
5.866;0.0442505
5.867;0.0445557
5.868;0.0445557
5.869;0.0448608
5.87;0.045166
5.871;0.0448608
5.872;0.0445557
5.873;0.0442505
5.874;0.0442505
5.875;0.0445557
5.876;0.0445557
5.877;0.0445557
5.878;0.0445557
5.879;0.0442505
5.88;0.0439453
5.881;0.043335
5.882;0.0427246
5.883;0.0418091
5.884;0.0405884
5.885;0.0390625
5.886;0.038147
5.887;0.0375366
5.888;0.0372314
5.889;0.0369263
5.89;0.0363159
5.891;0.0357056
5.892;0.0350952
5.893;0.0341797
5.894;0.032959
5.895;0.0314331
5.896;0.0296021
5.897;0.0274658
5.898;0.0250244
5.899;0.022583
5.9;0.020752
5.901;0.0189209
5.902;0.017395
5.903;0.0158691
5.904;0.0143433
5.905;0.0128174
5.906;0.0109863
5.907;0.00915527
5.908;0.00732422
5.909;0.00518799
5.91;0.00274658
5.911;0.000305176
5.912;-0.00213623
5.913;-0.00396729
5.914;-0.00549316
5.915;-0.00671387
5.916;-0.00732422
5.917;-0.00793457
5.918;-0.00823975
5.919;-0.0088501
5.92;-0.0088501
5.921;-0.0088501
5.922;-0.00854492
5.923;-0.00823975
5.924;-0.00793457
5.925;-0.00762939
5.926;-0.00732422
5.927;-0.00701904
5.928;-0.00701904
5.929;-0.00701904
5.93;-0.00762939
5.931;-0.0088501
5.932;-0.0109863
5.933;-0.0134277
5.934;-0.0164795
5.935;-0.0192261
5.936;-0.0213623
5.937;-0.0222778
5.938;-0.0222778
5.939;-0.0213623
5.94;-0.0201416
5.941;-0.0189209
5.942;-0.0177002
5.943;-0.0164795
5.944;-0.0152588
5.945;-0.0140381
5.946;-0.0131226
5.947;-0.012207
5.948;-0.0109863
5.949;-0.0100708
5.95;-0.00915527
5.951;-0.00793457
5.952;-0.00671387
5.953;-0.00549316
5.954;-0.00396729
5.955;-0.00274658
5.956;-0.00152588
5.957;-0.000610352
5.958;-0.000305176
5.959;-0.000305176
5.96;-0.0012207
5.961;-0.00244141
5.962;-0.00396729
5.963;-0.00579834
5.964;-0.00762939
5.965;-0.0088501
5.966;-0.00976562
5.967;-0.010376
5.968;-0.010376
5.969;-0.010376
5.97;-0.00946045
5.971;-0.00854492
5.972;-0.00732422
5.973;-0.00610352
5.974;-0.00488281
5.975;-0.00427246
5.976;-0.00396729
5.977;-0.00427246
5.978;-0.00518799
5.979;-0.00610352
5.98;-0.00671387
5.981;-0.00762939
5.982;-0.00823975
5.983;-0.00915527
5.984;-0.0100708
5.985;-0.0109863
5.986;-0.0119019
5.987;-0.0119019
5.988;-0.0115967
5.989;-0.0106812
5.99;-0.0088501
5.991;-0.00640869
5.992;-0.00305176
5.993;0.0012207
5.994;0.00640869
5.995;0.012207
5.996;0.0186157
5.997;0.0259399
5.998;0.0338745
5.999;0.0427246
6;0.0527954
6.001;0.0637817
6.002;0.0759888
6.003;0.0891113
6.004;0.10376
6.005;0.119629
6.006;0.136719
6.007;0.155029
6.008;0.174255
6.009;0.194397
6.01;0.215454
6.011;0.237122
6.012;0.259094
6.013;0.281982
6.014;0.305176
6.015;0.328064
6.016;0.350037
6.017;0.370178
6.018;0.387573
6.019;0.400085
6.02;0.407715
6.021;0.408936
6.022;0.403442
6.023;0.391541
6.024;0.372314
6.025;0.346985
6.026;0.315552
6.027;0.278625
6.028;0.236816
6.029;0.190735
6.03;0.141296
6.031;0.0894165
6.032;0.0357056
6.033;-0.0183105
6.034;-0.0714111
6.035;-0.122986
6.036;-0.170898
6.037;-0.214844
6.038;-0.253601
6.039;-0.28595
6.04;-0.31189
6.041;-0.331116
6.042;-0.342712
6.043;-0.347595
6.044;-0.345154
6.045;-0.336609
6.046;-0.322571
6.047;-0.30365
6.048;-0.281677
6.049;-0.257568
6.05;-0.232239
6.051;-0.206909
6.052;-0.181885
6.053;-0.157776
6.054;-0.134888
6.055;-0.114136
6.056;-0.09552
6.057;-0.0799561
6.058;-0.0671387
6.059;-0.057373
6.06;-0.0500488
6.061;-0.045166
6.062;-0.0424194
6.063;-0.0415039
6.064;-0.0415039
6.065;-0.0424194
6.066;-0.0436401
6.067;-0.045166
6.068;-0.0457764
6.069;-0.0457764
6.07;-0.045166
6.071;-0.0442505
6.072;-0.0430298
6.073;-0.0418091
6.074;-0.0408936
6.075;-0.0402832
6.076;-0.0402832
6.077;-0.0402832
6.078;-0.0408936
6.079;-0.0415039
6.08;-0.0421143
6.081;-0.0421143
6.082;-0.0418091
6.083;-0.0402832
6.084;-0.0378418
6.085;-0.0354004
6.086;-0.0326538
6.087;-0.0302124
6.088;-0.0283813
6.089;-0.0268555
6.09;-0.0262451
6.091;-0.0256348
6.092;-0.0247192
6.093;-0.0234985
6.094;-0.0222778
6.095;-0.0210571
6.096;-0.0195312
6.097;-0.0186157
6.098;-0.0180054
6.099;-0.0177002
6.1;-0.017395
6.101;-0.0170898
6.102;-0.017395
6.103;-0.0180054
6.104;-0.0192261
6.105;-0.0201416
6.106;-0.0210571
6.107;-0.0216675
6.108;-0.022583
6.109;-0.0234985
6.11;-0.0244141
6.111;-0.0253296
6.112;-0.0259399
6.113;-0.0262451
6.114;-0.0265503
6.115;-0.0259399
6.116;-0.0247192
6.117;-0.022583
6.118;-0.0201416
6.119;-0.017395
6.12;-0.0146484
6.121;-0.0125122
6.122;-0.0109863
6.123;-0.0100708
6.124;-0.00976562
6.125;-0.00946045
6.126;-0.00915527
6.127;-0.0088501
6.128;-0.00823975
6.129;-0.00762939
6.13;-0.00701904
6.131;-0.00640869
6.132;-0.00579834
6.133;-0.00488281
6.134;-0.00427246
6.135;-0.00396729
6.136;-0.00427246
6.137;-0.00427246
6.138;-0.00457764
6.139;-0.00457764
6.14;-0.00396729
6.141;-0.00335693
6.142;-0.00244141
6.143;-0.00152588
6.144;-0.000610352
6.145;-0.000305176
6.146;0
6.147;0
6.148;0
6.149;0
6.15;0
6.151;0
6.152;0
6.153;-0.000305176
6.154;-0.000305176
6.155;-0.000305176
6.156;0
6.157;0
6.158;0.000305176
6.159;0.000610352
6.16;0.000915527
6.161;0.0012207
6.162;0.00152588
6.163;0.00183105
6.164;0.00244141
6.165;0.00305176
6.166;0.00366211
6.167;0.00457764
6.168;0.00579834
6.169;0.00732422
6.17;0.00854492
6.171;0.00946045
6.172;0.00976562
6.173;0.0100708
6.174;0.00976562
6.175;0.00946045
6.176;0.00915527
6.177;0.00854492
6.178;0.00793457
6.179;0.00762939
6.18;0.00793457
6.181;0.00823975
6.182;0.0088501
6.183;0.00946045
6.184;0.00976562
6.185;0.010376
6.186;0.010376
6.187;0.0106812
6.188;0.0106812
6.189;0.0109863
6.19;0.0115967
6.191;0.0131226
6.192;0.0149536
6.193;0.017395
6.194;0.0198364
6.195;0.0222778
6.196;0.0238037
6.197;0.0247192
6.198;0.0244141
6.199;0.0238037
6.2;0.0231934
6.201;0.022583
6.202;0.0222778
6.203;0.0222778
6.204;0.022583
6.205;0.0228882
6.206;0.0234985
6.207;0.0241089
6.208;0.0244141
6.209;0.0250244
6.21;0.0256348
6.211;0.0262451
6.212;0.0271606
6.213;0.0280762
6.214;0.0289917
6.215;0.0299072
6.216;0.0308228
6.217;0.0317383
6.218;0.0326538
6.219;0.0338745
6.22;0.0357056
6.221;0.0378418
6.222;0.0402832
6.223;0.0427246
6.224;0.0448608
6.225;0.0463867
6.226;0.0473022
6.227;0.0476074
6.228;0.0469971
6.229;0.0460815
6.23;0.045166
6.231;0.0439453
6.232;0.0427246
6.233;0.0418091
6.234;0.0408936
6.235;0.0405884
6.236;0.0402832
6.237;0.0402832
6.238;0.0402832
6.239;0.0405884
6.24;0.0405884
6.241;0.0408936
6.242;0.0411987
6.243;0.0415039
6.244;0.0421143
6.245;0.0424194
6.246;0.0430298
6.247;0.043335
6.248;0.0436401
6.249;0.0436401
6.25;0.0439453
6.251;0.0442505
6.252;0.0445557
6.253;0.045166
6.254;0.0454712
6.255;0.0457764
6.256;0.0457764
6.257;0.0454712
6.258;0.0448608
6.259;0.0439453
6.26;0.0427246
6.261;0.0411987
6.262;0.0396729
6.263;0.038147
6.264;0.0363159
6.265;0.03479
6.266;0.0335693
6.267;0.0326538
6.268;0.0317383
6.269;0.0308228
6.27;0.0296021
6.271;0.0280762
6.272;0.0262451
6.273;0.0241089
6.274;0.0219727
6.275;0.0195312
6.276;0.017395
6.277;0.0152588
6.278;0.0134277
6.279;0.0115967
6.28;0.00976562
6.281;0.00854492
6.282;0.00701904
6.283;0.00579834
6.284;0.00427246
6.285;0.00305176
6.286;0.00213623
6.287;0.0012207
6.288;0.000915527
6.289;0.000305176
6.29;-0.000305176
6.291;-0.0012207
6.292;-0.00244141
6.293;-0.00396729
6.294;-0.00579834
6.295;-0.00793457
6.296;-0.00976562
6.297;-0.0119019
6.298;-0.0137329
6.299;-0.0161743
6.3;-0.0186157
6.301;-0.0216675
6.302;-0.0250244
6.303;-0.0289917
6.304;-0.032959
6.305;-0.0372314
6.306;-0.0415039
6.307;-0.045166
6.308;-0.0479126
6.309;-0.050354
6.31;-0.0524902
6.311;-0.0540161
6.312;-0.0549316
6.313;-0.055542
6.314;-0.0552368
6.315;-0.0546265
6.316;-0.0537109
6.317;-0.0531006
6.318;-0.0521851
6.319;-0.0509644
6.32;-0.0497437
6.321;-0.0476074
6.322;-0.045166
6.323;-0.0418091
6.324;-0.0384521
6.325;-0.0354004
6.326;-0.0326538
6.327;-0.0311279
6.328;-0.0305176
6.329;-0.0305176
6.33;-0.0308228
6.331;-0.0314331
6.332;-0.0317383
6.333;-0.0323486
6.334;-0.0326538
6.335;-0.032959
6.336;-0.0326538
6.337;-0.0323486
6.338;-0.0314331
6.339;-0.0302124
6.34;-0.0292969
6.341;-0.0286865
6.342;-0.0286865
6.343;-0.0289917
6.344;-0.0292969
6.345;-0.0296021
6.346;-0.0292969
6.347;-0.0283813
6.348;-0.0271606
6.349;-0.0256348
6.35;-0.0238037
6.351;-0.0222778
6.352;-0.0213623
6.353;-0.0204468
6.354;-0.0204468
6.355;-0.0204468
6.356;-0.020752
6.357;-0.0213623
6.358;-0.0216675
6.359;-0.022583
6.36;-0.0228882
6.361;-0.0231934
6.362;-0.0231934
6.363;-0.0231934
6.364;-0.0228882
6.365;-0.022583
6.366;-0.0213623
6.367;-0.0204468
6.368;-0.0189209
6.369;-0.017395
6.37;-0.015564
6.371;-0.0143433
6.372;-0.0134277
6.373;-0.0131226
6.374;-0.0131226
6.375;-0.0131226
6.376;-0.0125122
6.377;-0.0115967
6.378;-0.00976562
6.379;-0.00762939
6.38;-0.00549316
6.381;-0.00396729
6.382;-0.00274658
6.383;-0.00274658
6.384;-0.00366211
6.385;-0.00488281
6.386;-0.00579834
6.387;-0.00671387
6.388;-0.00762939
6.389;-0.00854492
6.39;-0.00946045
6.391;-0.0100708
6.392;-0.010376
6.393;-0.0106812
6.394;-0.0112915
6.395;-0.012207
6.396;-0.0137329
6.397;-0.015564
6.398;-0.017395
6.399;-0.0189209
6.4;-0.0201416
6.401;-0.0210571
6.402;-0.0216675
6.403;-0.0216675
6.404;-0.0216675
6.405;-0.0213623
6.406;-0.0216675
6.407;-0.0219727
6.408;-0.022583
6.409;-0.0228882
6.41;-0.0228882
6.411;-0.022583
6.412;-0.0219727
6.413;-0.0213623
6.414;-0.0210571
6.415;-0.0210571
6.416;-0.0210571
6.417;-0.0210571
6.418;-0.0210571
6.419;-0.0210571
6.42;-0.0213623
6.421;-0.0219727
6.422;-0.022583
6.423;-0.0238037
6.424;-0.0247192
6.425;-0.0256348
6.426;-0.0262451
6.427;-0.0268555
6.428;-0.0265503
6.429;-0.0259399
6.43;-0.0250244
6.431;-0.0238037
6.432;-0.0231934
6.433;-0.022583
6.434;-0.0222778
6.435;-0.0222778
6.436;-0.0222778
6.437;-0.0222778
6.438;-0.0216675
6.439;-0.020752
6.44;-0.0195312
6.441;-0.0183105
6.442;-0.017395
6.443;-0.0170898
6.444;-0.0167847
6.445;-0.017395
6.446;-0.0186157
6.447;-0.0204468
6.448;-0.0222778
6.449;-0.0238037
6.45;-0.0250244
6.451;-0.0259399
6.452;-0.0268555
6.453;-0.027771
6.454;-0.0283813
6.455;-0.0289917
6.456;-0.0296021
6.457;-0.0302124
6.458;-0.0305176
6.459;-0.0308228
6.46;-0.0311279
6.461;-0.0314331
6.462;-0.0314331
6.463;-0.0311279
6.464;-0.0308228
6.465;-0.0305176
6.466;-0.0305176
6.467;-0.0305176
6.468;-0.0311279
6.469;-0.0320435
6.47;-0.0332642
6.471;-0.0344849
6.472;-0.0357056
6.473;-0.0366211
6.474;-0.0366211
6.475;-0.0363159
6.476;-0.0354004
6.477;-0.03479
6.478;-0.03479
6.479;-0.0354004
6.48;-0.0366211
6.481;-0.038147
6.482;-0.0393677
6.483;-0.0396729
6.484;-0.0387573
6.485;-0.0369263
6.486;-0.0344849
6.487;-0.0317383
6.488;-0.0289917
6.489;-0.0262451
6.49;-0.0238037
6.491;-0.0216675
6.492;-0.0201416
6.493;-0.0189209
6.494;-0.0177002
6.495;-0.0170898
6.496;-0.0164795
6.497;-0.0164795
6.498;-0.0170898
6.499;-0.0180054
6.5;-0.0195312
6.501;-0.0210571
6.502;-0.0228882
6.503;-0.0247192
6.504;-0.0259399
6.505;-0.0268555
6.506;-0.0274658
6.507;-0.0274658
6.508;-0.0271606
6.509;-0.0271606
6.51;-0.0271606
6.511;-0.0274658
6.512;-0.027771
6.513;-0.0280762
6.514;-0.0280762
6.515;-0.027771
6.516;-0.0268555
6.517;-0.0250244
6.518;-0.022583
6.519;-0.0195312
6.52;-0.0167847
6.521;-0.0149536
6.522;-0.0137329
6.523;-0.0137329
6.524;-0.0137329
6.525;-0.0140381
6.526;-0.0140381
6.527;-0.0140381
6.528;-0.0140381
6.529;-0.0143433
6.53;-0.0149536
6.531;-0.015564
6.532;-0.0167847
6.533;-0.0180054
6.534;-0.0192261
6.535;-0.020752
6.536;-0.0216675
6.537;-0.0222778
6.538;-0.0222778
6.539;-0.0216675
6.54;-0.0204468
6.541;-0.0192261
6.542;-0.0183105
6.543;-0.0177002
6.544;-0.0177002
6.545;-0.0177002
6.546;-0.0180054
6.547;-0.0180054
6.548;-0.0177002
6.549;-0.0170898
6.55;-0.0164795
6.551;-0.0152588
6.552;-0.0143433
6.553;-0.0134277
6.554;-0.0131226
6.555;-0.0131226
6.556;-0.0137329
6.557;-0.0146484
6.558;-0.015564
6.559;-0.0161743
6.56;-0.0158691
6.561;-0.0146484
6.562;-0.0128174
6.563;-0.0109863
6.564;-0.0088501
6.565;-0.00671387
6.566;-0.00518799
6.567;-0.00366211
6.568;-0.00274658
6.569;-0.00244141
6.57;-0.00213623
6.571;-0.00152588
6.572;-0.000915527
6.573;0.000305176
6.574;0.00152588
6.575;0.00274658
6.576;0.00335693
6.577;0.00335693
6.578;0.00335693
6.579;0.00305176
6.58;0.00244141
6.581;0.0012207
6.582;-0.000305176
6.583;-0.00183105
6.584;-0.00335693
6.585;-0.00488281
6.586;-0.00579834
6.587;-0.00701904
6.588;-0.00823975
6.589;-0.00946045
6.59;-0.0106812
6.591;-0.0115967
6.592;-0.0128174
6.593;-0.0134277
6.594;-0.0134277
6.595;-0.0134277
6.596;-0.0134277
6.597;-0.0134277
6.598;-0.0137329
6.599;-0.0140381
6.6;-0.0143433
6.601;-0.0143433
6.602;-0.0140381
6.603;-0.0137329
6.604;-0.0134277
6.605;-0.0131226
6.606;-0.0131226
6.607;-0.0128174
6.608;-0.0128174
6.609;-0.0125122
6.61;-0.012207
6.611;-0.0119019
6.612;-0.0115967
6.613;-0.0112915
6.614;-0.0109863
6.615;-0.0106812
6.616;-0.0100708
6.617;-0.00915527
6.618;-0.00823975
6.619;-0.00823975
6.62;-0.00823975
6.621;-0.00854492
6.622;-0.0088501
6.623;-0.00915527
6.624;-0.00854492
6.625;-0.00793457
6.626;-0.00732422
6.627;-0.00671387
6.628;-0.00671387
6.629;-0.00701904
6.63;-0.00732422
6.631;-0.00793457
6.632;-0.00823975
6.633;-0.00854492
6.634;-0.0088501
6.635;-0.00854492
6.636;-0.00854492
6.637;-0.00823975
6.638;-0.00793457
6.639;-0.00762939
6.64;-0.00732422
6.641;-0.00732422
6.642;-0.00732422
6.643;-0.00732422
6.644;-0.00701904
6.645;-0.00671387
6.646;-0.00579834
6.647;-0.00518799
6.648;-0.00488281
6.649;-0.00518799
6.65;-0.00579834
6.651;-0.00671387
6.652;-0.00701904
6.653;-0.00701904
6.654;-0.00640869
6.655;-0.00579834
6.656;-0.00457764
6.657;-0.00335693
6.658;-0.00213623
6.659;-0.000915527
6.66;-0.000305176
6.661;0
6.662;-0.000610352
6.663;-0.0012207
6.664;-0.00183105
6.665;-0.00244141
6.666;-0.00244141
6.667;-0.00244141
6.668;-0.00213623
6.669;-0.00183105
6.67;-0.00152588
6.671;-0.00152588
6.672;-0.00152588
6.673;-0.00152588
6.674;-0.00183105
6.675;-0.00183105
6.676;-0.00152588
6.677;-0.000915527
6.678;-0.000610352
6.679;-0.000305176
6.68;0
6.681;0
6.682;-0.000305176
6.683;-0.000915527
6.684;-0.00152588
6.685;-0.00183105
6.686;-0.00183105
6.687;-0.00213623
6.688;-0.00213623
6.689;-0.00274658
6.69;-0.00366211
6.691;-0.00457764
6.692;-0.00579834
6.693;-0.00640869
6.694;-0.00701904
6.695;-0.00762939
6.696;-0.00854492
6.697;-0.00976562
6.698;-0.0109863
6.699;-0.0119019
6.7;-0.0125122
6.701;-0.0128174
6.702;-0.0125122
6.703;-0.0119019
6.704;-0.0109863
6.705;-0.0100708
6.706;-0.00946045
6.707;-0.0088501
6.708;-0.00823975
6.709;-0.00793457
6.71;-0.00732422
6.711;-0.00671387
6.712;-0.00640869
6.713;-0.00610352
6.714;-0.00640869
6.715;-0.00640869
6.716;-0.00701904
6.717;-0.00762939
6.718;-0.00854492
6.719;-0.00976562
6.72;-0.0106812
6.721;-0.0112915
6.722;-0.0119019
6.723;-0.0119019
6.724;-0.012207
6.725;-0.0125122
6.726;-0.0131226
6.727;-0.0137329
6.728;-0.0146484
6.729;-0.0152588
6.73;-0.0158691
6.731;-0.0158691
6.732;-0.015564
6.733;-0.0149536
6.734;-0.0140381
6.735;-0.0131226
6.736;-0.012207
6.737;-0.0109863
6.738;-0.00915527
6.739;-0.00701904
6.74;-0.00488281
6.741;-0.00335693
6.742;-0.00244141
6.743;-0.00213623
6.744;-0.00213623
6.745;-0.00274658
6.746;-0.00366211
6.747;-0.00488281
6.748;-0.00610352
6.749;-0.00732422
6.75;-0.00793457
6.751;-0.00793457
6.752;-0.00793457
6.753;-0.00793457
6.754;-0.00823975
6.755;-0.00915527
6.756;-0.010376
6.757;-0.0115967
6.758;-0.0131226
6.759;-0.0143433
6.76;-0.0152588
6.761;-0.0158691
6.762;-0.0161743
6.763;-0.0161743
6.764;-0.0158691
6.765;-0.0152588
6.766;-0.0143433
6.767;-0.0131226
6.768;-0.012207
6.769;-0.0115967
6.77;-0.0115967
6.771;-0.0119019
6.772;-0.0125122
6.773;-0.0131226
6.774;-0.0134277
6.775;-0.0143433
6.776;-0.0152588
6.777;-0.0161743
6.778;-0.0167847
6.779;-0.017395
6.78;-0.0180054
6.781;-0.0180054
6.782;-0.0177002
6.783;-0.0167847
6.784;-0.0161743
6.785;-0.0152588
6.786;-0.0146484
6.787;-0.0143433
6.788;-0.0134277
6.789;-0.0128174
6.79;-0.0119019
6.791;-0.0109863
6.792;-0.010376
6.793;-0.00946045
6.794;-0.00854492
6.795;-0.00793457
6.796;-0.00762939
6.797;-0.00793457
6.798;-0.0088501
6.799;-0.010376
6.8;-0.012207
6.801;-0.0140381
6.802;-0.0161743
6.803;-0.0183105
6.804;-0.0201416
6.805;-0.0216675
6.806;-0.0231934
6.807;-0.0244141
6.808;-0.0253296
6.809;-0.0259399
6.81;-0.0262451
6.811;-0.0259399
6.812;-0.0256348
6.813;-0.0250244
6.814;-0.0241089
6.815;-0.0228882
6.816;-0.0216675
6.817;-0.0204468
6.818;-0.0195312
6.819;-0.0186157
6.82;-0.017395
6.821;-0.0164795
6.822;-0.015564
6.823;-0.0146484
6.824;-0.0143433
6.825;-0.0140381
6.826;-0.0143433
6.827;-0.0146484
6.828;-0.0149536
6.829;-0.0152588
6.83;-0.015564
6.831;-0.0158691
6.832;-0.0161743
6.833;-0.0167847
6.834;-0.017395
6.835;-0.0180054
6.836;-0.0186157
6.837;-0.0195312
6.838;-0.0201416
6.839;-0.0201416
6.84;-0.0198364
6.841;-0.0189209
6.842;-0.017395
6.843;-0.0152588
6.844;-0.0125122
6.845;-0.0100708
6.846;-0.00732422
6.847;-0.00488281
6.848;-0.00305176
6.849;-0.00183105
6.85;-0.000610352
6.851;0.000305176
6.852;0.000915527
6.853;0.00183105
6.854;0.00244141
6.855;0.00366211
6.856;0.00488281
