0;0.0457764
0.001;0.0454712
0.002;0.0457764
0.003;0.0463867
0.004;0.0469971
0.005;0.0482178
0.006;0.0494385
0.007;0.0509644
0.008;0.0524902
0.009;0.0543213
0.01;0.0564575
0.011;0.0585938
0.012;0.0610352
0.013;0.0634766
0.014;0.0665283
0.015;0.0692749
0.016;0.0726318
0.017;0.0756836
0.018;0.0787354
0.019;0.0814819
0.02;0.0845337
0.021;0.0872803
0.022;0.0900269
0.023;0.0927734
0.024;0.09552
0.025;0.0979614
0.026;0.100098
0.027;0.101929
0.028;0.103455
0.029;0.10437
0.03;0.104675
0.031;0.10498
0.032;0.105286
0.033;0.105286
0.034;0.105286
0.035;0.105286
0.036;0.105286
0.037;0.104675
0.038;0.104065
0.039;0.10376
0.04;0.10376
0.041;0.104065
0.042;0.10498
0.043;0.106506
0.044;0.108337
0.045;0.110474
0.046;0.11322
0.047;0.115967
0.048;0.119324
0.049;0.122681
0.05;0.126038
0.051;0.129395
0.052;0.132751
0.053;0.136414
0.054;0.140076
0.055;0.143738
0.056;0.147095
0.057;0.150146
0.058;0.152893
0.059;0.155029
0.06;0.157166
0.061;0.159302
0.062;0.161438
0.063;0.163574
0.064;0.16571
0.065;0.167847
0.066;0.169983
0.067;0.171814
0.068;0.17395
0.069;0.176086
0.07;0.178223
0.071;0.180359
0.072;0.182495
0.073;0.184937
0.074;0.187378
0.075;0.190125
0.076;0.192871
0.077;0.195312
0.078;0.197754
0.079;0.19989
0.08;0.202026
0.081;0.203857
0.082;0.205688
0.083;0.20752
0.084;0.209351
0.085;0.210876
0.086;0.211792
0.087;0.212708
0.088;0.213013
0.089;0.213013
0.09;0.212708
0.091;0.212402
0.092;0.212097
0.093;0.212097
0.094;0.212097
0.095;0.212402
0.096;0.212708
0.097;0.213013
0.098;0.213623
0.099;0.213928
0.1;0.213928
0.101;0.213318
0.102;0.212708
0.103;0.211487
0.104;0.210266
0.105;0.20874
0.106;0.206604
0.107;0.204773
0.108;0.202637
0.109;0.2005
0.11;0.198364
0.111;0.196228
0.112;0.193787
0.113;0.19165
0.114;0.188904
0.115;0.186157
0.116;0.1828
0.117;0.179138
0.118;0.175171
0.119;0.170898
0.12;0.166321
0.121;0.161743
0.122;0.15686
0.123;0.151672
0.124;0.146179
0.125;0.140686
0.126;0.134277
0.127;0.127563
0.128;0.120239
0.129;0.11261
0.13;0.104675
0.131;0.0967407
0.132;0.088501
0.133;0.0802612
0.134;0.0723267
0.135;0.0640869
0.136;0.0558472
0.137;0.0476074
0.138;0.0396729
0.139;0.0317383
0.14;0.0244141
0.141;0.017395
0.142;0.0109863
0.143;0.00518799
0.144;-0.000610352
0.145;-0.00579834
0.146;-0.0109863
0.147;-0.015564
0.148;-0.0201416
0.149;-0.0244141
0.15;-0.0286865
0.151;-0.0326538
0.152;-0.0363159
0.153;-0.0396729
0.154;-0.0427246
0.155;-0.0454712
0.156;-0.0482178
0.157;-0.0509644
0.158;-0.0537109
0.159;-0.0564575
0.16;-0.0595093
0.161;-0.062561
0.162;-0.065918
0.163;-0.0692749
0.164;-0.0723267
0.165;-0.0753784
0.166;-0.078125
0.167;-0.0805664
0.168;-0.0830078
0.169;-0.085144
0.17;-0.0872803
0.171;-0.0891113
0.172;-0.0909424
0.173;-0.0927734
0.174;-0.0946045
0.175;-0.0967407
0.176;-0.0985718
0.177;-0.100098
0.178;-0.101624
0.179;-0.102844
0.18;-0.10376
0.181;-0.104065
0.182;-0.10437
0.183;-0.104675
0.184;-0.10498
0.185;-0.10498
0.186;-0.105286
0.187;-0.105286
0.188;-0.105286
0.189;-0.10498
0.19;-0.10437
0.191;-0.10376
0.192;-0.102844
0.193;-0.101624
0.194;-0.100708
0.195;-0.0997925
0.196;-0.098877
0.197;-0.0982666
0.198;-0.0976562
0.199;-0.0973511
0.2;-0.0964355
0.201;-0.0958252
0.202;-0.0949097
0.203;-0.0939941
0.204;-0.0930786
0.205;-0.0927734
0.206;-0.0930786
0.207;-0.0942993
0.208;-0.0958252
0.209;-0.0979614
0.21;-0.100403
0.211;-0.102844
0.212;-0.105286
0.213;-0.107727
0.214;-0.109863
0.215;-0.111694
0.216;-0.113525
0.217;-0.115051
0.218;-0.116577
0.219;-0.118103
0.22;-0.119629
0.221;-0.12085
0.222;-0.121765
0.223;-0.122375
0.224;-0.122375
0.225;-0.12207
0.226;-0.121765
0.227;-0.121155
0.228;-0.120544
0.229;-0.119629
0.23;-0.118713
0.231;-0.117798
0.232;-0.117188
0.233;-0.116577
0.234;-0.116577
0.235;-0.116272
0.236;-0.115967
0.237;-0.115662
0.238;-0.115662
0.239;-0.115662
0.24;-0.115662
0.241;-0.115356
0.242;-0.115356
0.243;-0.114746
0.244;-0.114136
0.245;-0.112915
0.246;-0.111694
0.247;-0.110474
0.248;-0.108948
0.249;-0.107727
0.25;-0.106506
0.251;-0.105591
0.252;-0.10498
0.253;-0.10437
0.254;-0.10376
0.255;-0.103149
0.256;-0.102539
0.257;-0.101929
0.258;-0.101318
0.259;-0.101318
0.26;-0.101318
0.261;-0.101624
0.262;-0.102234
0.263;-0.102539
0.264;-0.103149
0.265;-0.103455
0.266;-0.10376
0.267;-0.103455
0.268;-0.103149
0.269;-0.101929
0.27;-0.100708
0.271;-0.0985718
0.272;-0.0961304
0.273;-0.093689
0.274;-0.0912476
0.275;-0.0888062
0.276;-0.0866699
0.277;-0.0845337
0.278;-0.0823975
0.279;-0.0802612
0.28;-0.078125
0.281;-0.0753784
0.282;-0.072937
0.283;-0.0698853
0.284;-0.0668335
0.285;-0.0637817
0.286;-0.0613403
0.287;-0.0592041
0.288;-0.0576782
0.289;-0.0564575
0.29;-0.055542
0.291;-0.0549316
0.292;-0.0546265
0.293;-0.0546265
0.294;-0.0549316
0.295;-0.0552368
0.296;-0.0558472
0.297;-0.0567627
0.298;-0.0576782
0.299;-0.0585938
0.3;-0.0595093
0.301;-0.0604248
0.302;-0.0610352
0.303;-0.0619507
0.304;-0.0628662
0.305;-0.0640869
0.306;-0.0653076
0.307;-0.0662231
0.308;-0.0671387
0.309;-0.0674438
0.31;-0.0674438
0.311;-0.0668335
0.312;-0.0662231
0.313;-0.0650024
0.314;-0.0637817
0.315;-0.0622559
0.316;-0.06073
0.317;-0.0588989
0.318;-0.0570679
0.319;-0.0552368
0.32;-0.0534058
0.321;-0.0515747
0.322;-0.050354
0.323;-0.0494385
0.324;-0.0488281
0.325;-0.0482178
0.326;-0.0479126
0.327;-0.0476074
0.328;-0.0476074
0.329;-0.0476074
0.33;-0.0476074
0.331;-0.0476074
0.332;-0.0479126
0.333;-0.0479126
0.334;-0.0479126
0.335;-0.0479126
0.336;-0.0482178
0.337;-0.0482178
0.338;-0.0485229
0.339;-0.0488281
0.34;-0.0491333
0.341;-0.0497437
0.342;-0.0500488
0.343;-0.0506592
0.344;-0.0512695
0.345;-0.0518799
0.346;-0.0527954
0.347;-0.0534058
0.348;-0.0540161
0.349;-0.0543213
0.35;-0.0543213
0.351;-0.0543213
0.352;-0.0537109
0.353;-0.0534058
0.354;-0.0531006
0.355;-0.0527954
0.356;-0.0527954
0.357;-0.0527954
0.358;-0.0531006
0.359;-0.0531006
0.36;-0.0534058
0.361;-0.0534058
0.362;-0.0534058
0.363;-0.0534058
0.364;-0.0531006
0.365;-0.0534058
0.366;-0.0534058
0.367;-0.0537109
0.368;-0.0537109
0.369;-0.0543213
0.37;-0.0546265
0.371;-0.0552368
0.372;-0.0558472
0.373;-0.0564575
0.374;-0.0567627
0.375;-0.0567627
0.376;-0.0567627
0.377;-0.0570679
0.378;-0.057373
0.379;-0.0576782
0.38;-0.0582886
0.381;-0.0588989
0.382;-0.0592041
0.383;-0.0598145
0.384;-0.0604248
0.385;-0.0613403
0.386;-0.0628662
0.387;-0.0643921
0.388;-0.0665283
0.389;-0.0689697
0.39;-0.0717163
0.391;-0.0747681
0.392;-0.0778198
0.393;-0.0808716
0.394;-0.0839233
0.395;-0.0872803
0.396;-0.0897217
0.397;-0.0918579
0.398;-0.0933838
0.399;-0.0942993
0.4;-0.0946045
0.401;-0.0942993
0.402;-0.093689
0.403;-0.0921631
0.404;-0.090332
0.405;-0.0881958
0.406;-0.0857544
0.407;-0.083313
0.408;-0.0808716
0.409;-0.0784302
0.41;-0.0762939
0.411;-0.0744629
0.412;-0.0726318
0.413;-0.071106
0.414;-0.0695801
0.415;-0.0683594
0.416;-0.0674438
0.417;-0.0671387
0.418;-0.0674438
0.419;-0.0680542
0.42;-0.0689697
0.421;-0.0704956
0.422;-0.0717163
0.423;-0.0732422
0.424;-0.0747681
0.425;-0.0759888
0.426;-0.0769043
0.427;-0.0778198
0.428;-0.0784302
0.429;-0.0790405
0.43;-0.0796509
0.431;-0.0799561
0.432;-0.0799561
0.433;-0.0799561
0.434;-0.0796509
0.435;-0.0796509
0.436;-0.0796509
0.437;-0.0799561
0.438;-0.0802612
0.439;-0.0808716
0.44;-0.0817871
0.441;-0.0827026
0.442;-0.0839233
0.443;-0.0848389
0.444;-0.0857544
0.445;-0.0869751
0.446;-0.0881958
0.447;-0.0897217
0.448;-0.0912476
0.449;-0.0927734
0.45;-0.0939941
0.451;-0.09552
0.452;-0.0964355
0.453;-0.0970459
0.454;-0.0973511
0.455;-0.0973511
0.456;-0.0970459
0.457;-0.0964355
0.458;-0.0958252
0.459;-0.0952148
0.46;-0.0942993
0.461;-0.093689
0.462;-0.0927734
0.463;-0.0921631
0.464;-0.0915527
0.465;-0.0909424
0.466;-0.0909424
0.467;-0.0906372
0.468;-0.0909424
0.469;-0.0912476
0.47;-0.0918579
0.471;-0.0924683
0.472;-0.093689
0.473;-0.0946045
0.474;-0.09552
0.475;-0.0961304
0.476;-0.0964355
0.477;-0.0967407
0.478;-0.0967407
0.479;-0.0967407
0.48;-0.0970459
0.481;-0.0970459
0.482;-0.0976562
0.483;-0.0982666
0.484;-0.098877
0.485;-0.0994873
0.486;-0.0997925
0.487;-0.0997925
0.488;-0.0994873
0.489;-0.098877
0.49;-0.0982666
0.491;-0.0976562
0.492;-0.0970459
0.493;-0.0967407
0.494;-0.0964355
0.495;-0.0964355
0.496;-0.0964355
0.497;-0.0967407
0.498;-0.0967407
0.499;-0.0970459
0.5;-0.0970459
0.501;-0.0970459
0.502;-0.0967407
0.503;-0.0967407
0.504;-0.0964355
0.505;-0.0961304
0.506;-0.0958252
0.507;-0.09552
0.508;-0.0952148
0.509;-0.0949097
0.51;-0.0946045
0.511;-0.0942993
0.512;-0.0939941
0.513;-0.0939941
0.514;-0.0946045
0.515;-0.0952148
0.516;-0.0961304
0.517;-0.0970459
0.518;-0.0979614
0.519;-0.0985718
0.52;-0.098877
0.521;-0.098877
0.522;-0.098877
0.523;-0.098877
0.524;-0.098877
0.525;-0.0985718
0.526;-0.0976562
0.527;-0.0967407
0.528;-0.09552
0.529;-0.0946045
0.53;-0.0933838
0.531;-0.0927734
0.532;-0.0924683
0.533;-0.0921631
0.534;-0.0918579
0.535;-0.0912476
0.536;-0.0906372
0.537;-0.090332
0.538;-0.0900269
0.539;-0.0897217
0.54;-0.0900269
0.541;-0.090332
0.542;-0.0912476
0.543;-0.0924683
0.544;-0.0942993
0.545;-0.0958252
0.546;-0.0976562
0.547;-0.098877
0.548;-0.100098
0.549;-0.101318
0.55;-0.102539
0.551;-0.103149
0.552;-0.10376
0.553;-0.10376
0.554;-0.103455
0.555;-0.102844
0.556;-0.102234
0.557;-0.101318
0.558;-0.100403
0.559;-0.0997925
0.56;-0.0991821
0.561;-0.0982666
0.562;-0.0976562
0.563;-0.0970459
0.564;-0.0964355
0.565;-0.09552
0.566;-0.0949097
0.567;-0.0946045
0.568;-0.0942993
0.569;-0.0939941
0.57;-0.0939941
0.571;-0.093689
0.572;-0.0933838
0.573;-0.0930786
0.574;-0.0930786
0.575;-0.0930786
0.576;-0.0933838
0.577;-0.0939941
0.578;-0.0946045
0.579;-0.0952148
0.58;-0.09552
0.581;-0.09552
0.582;-0.0952148
0.583;-0.0949097
0.584;-0.0939941
0.585;-0.0930786
0.586;-0.0921631
0.587;-0.0909424
0.588;-0.0900269
0.589;-0.0894165
0.59;-0.088501
0.591;-0.0878906
0.592;-0.0872803
0.593;-0.0866699
0.594;-0.0863647
0.595;-0.0857544
0.596;-0.085144
0.597;-0.0848389
0.598;-0.0845337
0.599;-0.0839233
0.6;-0.083313
0.601;-0.0820923
0.602;-0.0808716
0.603;-0.0793457
0.604;-0.0778198
0.605;-0.0762939
0.606;-0.0747681
0.607;-0.072937
0.608;-0.071106
0.609;-0.0692749
0.61;-0.0671387
0.611;-0.0646973
0.612;-0.0622559
0.613;-0.0598145
0.614;-0.0570679
0.615;-0.0543213
0.616;-0.0512695
0.617;-0.0485229
0.618;-0.0454712
0.619;-0.0424194
0.62;-0.039978
0.621;-0.0375366
0.622;-0.0357056
0.623;-0.0341797
0.624;-0.0332642
0.625;-0.0323486
0.626;-0.0317383
0.627;-0.0308228
0.628;-0.0296021
0.629;-0.0280762
0.63;-0.0265503
0.631;-0.0244141
0.632;-0.0219727
0.633;-0.0192261
0.634;-0.0164795
0.635;-0.0134277
0.636;-0.0106812
0.637;-0.00854492
0.638;-0.00640869
0.639;-0.00457764
0.64;-0.00305176
0.641;-0.00213623
0.642;-0.00152588
0.643;-0.0012207
0.644;-0.0012207
0.645;-0.00152588
0.646;-0.00244141
0.647;-0.00335693
0.648;-0.00518799
0.649;-0.00701904
0.65;-0.00976562
0.651;-0.0125122
0.652;-0.0158691
0.653;-0.0192261
0.654;-0.0228882
0.655;-0.0259399
0.656;-0.0289917
0.657;-0.0314331
0.658;-0.0335693
0.659;-0.0354004
0.66;-0.0372314
0.661;-0.0387573
0.662;-0.0405884
0.663;-0.0424194
0.664;-0.0436401
0.665;-0.0448608
0.666;-0.0460815
0.667;-0.0469971
0.668;-0.0482178
0.669;-0.0497437
0.67;-0.0512695
0.671;-0.0531006
0.672;-0.0552368
0.673;-0.0576782
0.674;-0.0604248
0.675;-0.0634766
0.676;-0.0671387
0.677;-0.0704956
0.678;-0.0741577
0.679;-0.0772095
0.68;-0.0799561
0.681;-0.0823975
0.682;-0.0848389
0.683;-0.0866699
0.684;-0.0888062
0.685;-0.090332
0.686;-0.0921631
0.687;-0.0939941
0.688;-0.0958252
0.689;-0.0976562
0.69;-0.0991821
0.691;-0.100403
0.692;-0.101624
0.693;-0.102539
0.694;-0.103455
0.695;-0.10437
0.696;-0.105591
0.697;-0.106812
0.698;-0.108643
0.699;-0.110474
0.7;-0.112305
0.701;-0.114441
0.702;-0.116272
0.703;-0.118408
0.704;-0.120544
0.705;-0.122375
0.706;-0.124512
0.707;-0.126038
0.708;-0.127258
0.709;-0.127563
0.71;-0.127258
0.711;-0.125732
0.712;-0.122986
0.713;-0.119324
0.714;-0.114441
0.715;-0.108337
0.716;-0.100708
0.717;-0.0915527
0.718;-0.0808716
0.719;-0.0689697
0.72;-0.0552368
0.721;-0.0396729
0.722;-0.0219727
0.723;-0.00213623
0.724;0.0198364
0.725;0.0439453
0.726;0.0704956
0.727;0.0994873
0.728;0.13092
0.729;0.164185
0.73;0.199585
0.731;0.236206
0.732;0.273743
0.733;0.311584
0.734;0.349121
0.735;0.385132
0.736;0.419006
0.737;0.450439
0.738;0.479431
0.739;0.505981
0.74;0.530701
0.741;0.552979
0.742;0.57312
0.743;0.590515
0.744;0.603943
0.745;0.612488
0.746;0.614624
0.747;0.610046
0.748;0.59845
0.749;0.580139
0.75;0.555115
0.751;0.524292
0.752;0.487976
0.753;0.447388
0.754;0.402527
0.755;0.354614
0.756;0.303955
0.757;0.250854
0.758;0.196533
0.759;0.141602
0.76;0.0869751
0.761;0.0335693
0.762;-0.0180054
0.763;-0.0662231
0.764;-0.111084
0.765;-0.151062
0.766;-0.185852
0.767;-0.214539
0.768;-0.237732
0.769;-0.254822
0.77;-0.266418
0.771;-0.272522
0.772;-0.273438
0.773;-0.26947
0.774;-0.261536
0.775;-0.250244
0.776;-0.235596
0.777;-0.218811
0.778;-0.200195
0.779;-0.180664
0.78;-0.161133
0.781;-0.142212
0.782;-0.124207
0.783;-0.108337
0.784;-0.0946045
0.785;-0.0836182
0.786;-0.0753784
0.787;-0.0695801
0.788;-0.0665283
0.789;-0.0656128
0.79;-0.0665283
0.791;-0.0686646
0.792;-0.0720215
0.793;-0.0753784
0.794;-0.0793457
0.795;-0.0830078
0.796;-0.0866699
0.797;-0.090332
0.798;-0.0930786
0.799;-0.09552
0.8;-0.0973511
0.801;-0.098877
0.802;-0.100098
0.803;-0.100403
0.804;-0.100708
0.805;-0.100098
0.806;-0.0991821
0.807;-0.0979614
0.808;-0.0964355
0.809;-0.0949097
0.81;-0.0930786
0.811;-0.0912476
0.812;-0.0897217
0.813;-0.0881958
0.814;-0.0869751
0.815;-0.0860596
0.816;-0.0854492
0.817;-0.0848389
0.818;-0.0842285
0.819;-0.0839233
0.82;-0.0836182
0.821;-0.083313
0.822;-0.0830078
0.823;-0.0823975
0.824;-0.0817871
0.825;-0.0811768
0.826;-0.0802612
0.827;-0.0796509
0.828;-0.0790405
0.829;-0.0784302
0.83;-0.078125
0.831;-0.0778198
0.832;-0.0778198
0.833;-0.0778198
0.834;-0.0778198
0.835;-0.078125
0.836;-0.0784302
0.837;-0.0787354
0.838;-0.0790405
0.839;-0.0793457
0.84;-0.0796509
0.841;-0.0796509
0.842;-0.0793457
0.843;-0.0790405
0.844;-0.0784302
0.845;-0.0778198
0.846;-0.0775146
0.847;-0.0769043
0.848;-0.0762939
0.849;-0.0753784
0.85;-0.0741577
0.851;-0.0726318
0.852;-0.0714111
0.853;-0.0698853
0.854;-0.0680542
0.855;-0.0665283
0.856;-0.0646973
0.857;-0.062561
0.858;-0.06073
0.859;-0.0592041
0.86;-0.0576782
0.861;-0.0564575
0.862;-0.055542
0.863;-0.0546265
0.864;-0.0543213
0.865;-0.0543213
0.866;-0.0543213
0.867;-0.0543213
0.868;-0.0543213
0.869;-0.0543213
0.87;-0.0537109
0.871;-0.0531006
0.872;-0.0518799
0.873;-0.050354
0.874;-0.0485229
0.875;-0.0469971
0.876;-0.045166
0.877;-0.0436401
0.878;-0.0424194
0.879;-0.0415039
0.88;-0.0402832
0.881;-0.0387573
0.882;-0.0369263
0.883;-0.03479
0.884;-0.0326538
0.885;-0.0305176
0.886;-0.0286865
0.887;-0.0265503
0.888;-0.0250244
0.889;-0.0231934
0.89;-0.0219727
0.891;-0.0204468
0.892;-0.0192261
0.893;-0.0177002
0.894;-0.0161743
0.895;-0.0149536
0.896;-0.0137329
0.897;-0.0128174
0.898;-0.0119019
0.899;-0.0109863
0.9;-0.00976562
0.901;-0.0088501
0.902;-0.00762939
0.903;-0.00671387
0.904;-0.00579834
0.905;-0.00457764
0.906;-0.00305176
0.907;-0.0012207
0.908;0.000915527
0.909;0.00335693
0.91;0.00579834
0.911;0.00793457
0.912;0.00976562
0.913;0.0115967
0.914;0.0134277
0.915;0.0152588
0.916;0.017395
0.917;0.0195312
0.918;0.0222778
0.919;0.0247192
0.92;0.0274658
0.921;0.0305176
0.922;0.0332642
0.923;0.0363159
0.924;0.0396729
0.925;0.0427246
0.926;0.0457764
0.927;0.0485229
0.928;0.0506592
0.929;0.0527954
0.93;0.0543213
0.931;0.0558472
0.932;0.0570679
0.933;0.0582886
0.934;0.0595093
0.935;0.0610352
0.936;0.0628662
0.937;0.0653076
0.938;0.0674438
0.939;0.0695801
0.94;0.0720215
0.941;0.0738525
0.942;0.0756836
0.943;0.0772095
0.944;0.0784302
0.945;0.0799561
0.946;0.0814819
0.947;0.083313
0.948;0.085144
0.949;0.0872803
0.95;0.0900269
0.951;0.0924683
0.952;0.0949097
0.953;0.0970459
0.954;0.0982666
0.955;0.0991821
0.956;0.0994873
0.957;0.0994873
0.958;0.0997925
0.959;0.100098
0.96;0.101013
0.961;0.101929
0.962;0.103149
0.963;0.104065
0.964;0.10498
0.965;0.105896
0.966;0.107117
0.967;0.107727
0.968;0.108643
0.969;0.109558
0.97;0.110168
0.971;0.111084
0.972;0.112
0.973;0.11322
0.974;0.114441
0.975;0.115662
0.976;0.116577
0.977;0.117493
0.978;0.118103
0.979;0.118103
0.98;0.118103
0.981;0.117493
0.982;0.116882
0.983;0.116272
0.984;0.115662
0.985;0.114746
0.986;0.113831
0.987;0.112915
0.988;0.111694
0.989;0.110779
0.99;0.110168
0.991;0.109253
0.992;0.108643
0.993;0.107727
0.994;0.107117
0.995;0.106201
0.996;0.10498
0.997;0.103455
0.998;0.101318
0.999;0.098877
1;0.0961304
1.001;0.0930786
1.002;0.0891113
1.003;0.0848389
1.004;0.0802612
1.005;0.0753784
1.006;0.0698853
1.007;0.0643921
1.008;0.0585938
1.009;0.0524902
1.01;0.0457764
1.011;0.0387573
1.012;0.0311279
1.013;0.0231934
1.014;0.015564
1.015;0.00793457
1.016;0.000915527
1.017;-0.00610352
1.018;-0.0128174
1.019;-0.0195312
1.02;-0.0262451
1.021;-0.0326538
1.022;-0.0390625
1.023;-0.0457764
1.024;-0.0521851
1.025;-0.0582886
1.026;-0.0643921
1.027;-0.0698853
1.028;-0.0753784
1.029;-0.0802612
1.03;-0.0848389
1.031;-0.0897217
1.032;-0.0942993
1.033;-0.098877
1.034;-0.10376
1.035;-0.108643
1.036;-0.113525
1.037;-0.118713
1.038;-0.123596
1.039;-0.128784
1.04;-0.133667
1.041;-0.138855
1.042;-0.143738
1.043;-0.148621
1.044;-0.153503
1.045;-0.157776
1.046;-0.161743
1.047;-0.1651
1.048;-0.168762
1.049;-0.172119
1.05;-0.175476
1.051;-0.178223
1.052;-0.180664
1.053;-0.1828
1.054;-0.184326
1.055;-0.185852
1.056;-0.186768
1.057;-0.187683
1.058;-0.188293
1.059;-0.188599
1.06;-0.188904
1.061;-0.188904
1.062;-0.188904
1.063;-0.188904
1.064;-0.189209
1.065;-0.189819
1.066;-0.19043
1.067;-0.19165
1.068;-0.192871
1.069;-0.194092
1.07;-0.195007
1.071;-0.195923
1.072;-0.196838
1.073;-0.197144
1.074;-0.197144
1.075;-0.197144
1.076;-0.196838
1.077;-0.196533
1.078;-0.196533
1.079;-0.196533
1.08;-0.196533
1.081;-0.196228
1.082;-0.195618
1.083;-0.194397
1.084;-0.192871
1.085;-0.191345
1.086;-0.189514
1.087;-0.187988
1.088;-0.186462
1.089;-0.185242
1.09;-0.184631
1.091;-0.184021
1.092;-0.184021
1.093;-0.184326
1.094;-0.184631
1.095;-0.185242
1.096;-0.185852
1.097;-0.186462
1.098;-0.187073
1.099;-0.187683
1.1;-0.188599
1.101;-0.189209
1.102;-0.189514
1.103;-0.190125
1.104;-0.19043
1.105;-0.190735
1.106;-0.19104
1.107;-0.191345
1.108;-0.191956
1.109;-0.192261
1.11;-0.192871
1.111;-0.193176
1.112;-0.193481
1.113;-0.194092
1.114;-0.194397
1.115;-0.194702
1.116;-0.194702
1.117;-0.194702
1.118;-0.194702
1.119;-0.195007
1.12;-0.195312
1.121;-0.195618
1.122;-0.196533
1.123;-0.197144
1.124;-0.197754
1.125;-0.198364
1.126;-0.198975
1.127;-0.199585
1.128;-0.19989
1.129;-0.200195
1.13;-0.2005
1.131;-0.200806
1.132;-0.201721
1.133;-0.202942
1.134;-0.203857
1.135;-0.204773
1.136;-0.205078
1.137;-0.205078
1.138;-0.205078
1.139;-0.205383
1.14;-0.205383
1.141;-0.205383
1.142;-0.205078
1.143;-0.204468
1.144;-0.203552
1.145;-0.202332
1.146;-0.200806
1.147;-0.19928
1.148;-0.197144
1.149;-0.195007
1.15;-0.192871
1.151;-0.19043
1.152;-0.187683
1.153;-0.184937
1.154;-0.181885
1.155;-0.178833
1.156;-0.175781
1.157;-0.172729
1.158;-0.169678
1.159;-0.166931
1.16;-0.16449
1.161;-0.162354
1.162;-0.160217
1.163;-0.158386
1.164;-0.15686
1.165;-0.15564
1.166;-0.154419
1.167;-0.153503
1.168;-0.152588
1.169;-0.151978
1.17;-0.151062
1.171;-0.150146
1.172;-0.149536
1.173;-0.149231
1.174;-0.149231
1.175;-0.149231
1.176;-0.149536
1.177;-0.149841
1.178;-0.150146
1.179;-0.150146
1.18;-0.149536
1.181;-0.148621
1.182;-0.147095
1.183;-0.145569
1.184;-0.143738
1.185;-0.141907
1.186;-0.140686
1.187;-0.13916
1.188;-0.137939
1.189;-0.136719
1.19;-0.135803
1.191;-0.134888
1.192;-0.134277
1.193;-0.133972
1.194;-0.133972
1.195;-0.134277
1.196;-0.134583
1.197;-0.134888
1.198;-0.135193
1.199;-0.135803
1.2;-0.136414
1.201;-0.137024
1.202;-0.137634
1.203;-0.13855
1.204;-0.13916
1.205;-0.139771
1.206;-0.140076
1.207;-0.140381
1.208;-0.140381
1.209;-0.140381
1.21;-0.140686
1.211;-0.140686
1.212;-0.140991
1.213;-0.140991
1.214;-0.140991
1.215;-0.140991
1.216;-0.141296
1.217;-0.141602
1.218;-0.141907
1.219;-0.142212
1.22;-0.142822
1.221;-0.143738
1.222;-0.144348
1.223;-0.144958
1.224;-0.146179
1.225;-0.1474
1.226;-0.148926
1.227;-0.150757
1.228;-0.152588
1.229;-0.154419
1.23;-0.155945
1.231;-0.157471
1.232;-0.158081
1.233;-0.158386
1.234;-0.158081
1.235;-0.157166
1.236;-0.15564
1.237;-0.153809
1.238;-0.151978
1.239;-0.150146
1.24;-0.148315
1.241;-0.147095
1.242;-0.145874
1.243;-0.144958
1.244;-0.144043
1.245;-0.143127
1.246;-0.142212
1.247;-0.140991
1.248;-0.140076
1.249;-0.13916
1.25;-0.138855
1.251;-0.13855
1.252;-0.138245
1.253;-0.138245
1.254;-0.138245
1.255;-0.13855
1.256;-0.13916
1.257;-0.139465
1.258;-0.140076
1.259;-0.140686
1.26;-0.140991
1.261;-0.140991
1.262;-0.140991
1.263;-0.140991
1.264;-0.140381
1.265;-0.13916
1.266;-0.137634
1.267;-0.135803
1.268;-0.133667
1.269;-0.131531
1.27;-0.129395
1.271;-0.127563
1.272;-0.126038
1.273;-0.125122
1.274;-0.124207
1.275;-0.123901
1.276;-0.123291
1.277;-0.122986
1.278;-0.122681
1.279;-0.12207
1.28;-0.12207
1.281;-0.121765
1.282;-0.121765
1.283;-0.12207
1.284;-0.122681
1.285;-0.123596
1.286;-0.124817
1.287;-0.126038
1.288;-0.127563
1.289;-0.128784
1.29;-0.130005
1.291;-0.13092
1.292;-0.131531
1.293;-0.131836
1.294;-0.132141
1.295;-0.132141
1.296;-0.131836
1.297;-0.131226
1.298;-0.130615
1.299;-0.13031
1.3;-0.130005
1.301;-0.130005
1.302;-0.130005
1.303;-0.13031
1.304;-0.13031
1.305;-0.130615
1.306;-0.13092
1.307;-0.131226
1.308;-0.132141
1.309;-0.133057
1.31;-0.133972
1.311;-0.135193
1.312;-0.136108
1.313;-0.137024
1.314;-0.137634
1.315;-0.13855
1.316;-0.139465
1.317;-0.140381
1.318;-0.141296
1.319;-0.142212
1.32;-0.143127
1.321;-0.143433
1.322;-0.144043
1.323;-0.144043
1.324;-0.144043
1.325;-0.144043
1.326;-0.143738
1.327;-0.143433
1.328;-0.143433
1.329;-0.143738
1.33;-0.144043
1.331;-0.144653
1.332;-0.144958
1.333;-0.145264
1.334;-0.145264
1.335;-0.145569
1.336;-0.146179
1.337;-0.147095
1.338;-0.148315
1.339;-0.149841
1.34;-0.151367
1.341;-0.153198
1.342;-0.155029
1.343;-0.15686
1.344;-0.158386
1.345;-0.160217
1.346;-0.161743
1.347;-0.163269
1.348;-0.164185
1.349;-0.1651
1.35;-0.16571
1.351;-0.166321
1.352;-0.166626
1.353;-0.166626
1.354;-0.166321
1.355;-0.16571
1.356;-0.164795
1.357;-0.163574
1.358;-0.162354
1.359;-0.160828
1.36;-0.158997
1.361;-0.157166
1.362;-0.154724
1.363;-0.151978
1.364;-0.148926
1.365;-0.145874
1.366;-0.142517
1.367;-0.139771
1.368;-0.137024
1.369;-0.135193
1.37;-0.133667
1.371;-0.132446
1.372;-0.131531
1.373;-0.130615
1.374;-0.1297
1.375;-0.129089
1.376;-0.128174
1.377;-0.127869
1.378;-0.127563
1.379;-0.127563
1.38;-0.128479
1.381;-0.1297
1.382;-0.131531
1.383;-0.133057
1.384;-0.134583
1.385;-0.136108
1.386;-0.137024
1.387;-0.137634
1.388;-0.137939
1.389;-0.138245
1.39;-0.13855
1.391;-0.13916
1.392;-0.139771
1.393;-0.140381
1.394;-0.140991
1.395;-0.141296
1.396;-0.141296
1.397;-0.140991
1.398;-0.140381
1.399;-0.139465
1.4;-0.138855
1.401;-0.138245
1.402;-0.138245
1.403;-0.13855
1.404;-0.138855
1.405;-0.139771
1.406;-0.140686
1.407;-0.141296
1.408;-0.141907
1.409;-0.141907
1.41;-0.141907
1.411;-0.141602
1.412;-0.141296
1.413;-0.141296
1.414;-0.141296
1.415;-0.141602
1.416;-0.141907
1.417;-0.142212
1.418;-0.142212
1.419;-0.142517
1.42;-0.142212
1.421;-0.142212
1.422;-0.141602
1.423;-0.140991
1.424;-0.140381
1.425;-0.139465
1.426;-0.13855
1.427;-0.137939
1.428;-0.137634
1.429;-0.137329
1.43;-0.137329
1.431;-0.137634
1.432;-0.137939
1.433;-0.13855
1.434;-0.138855
1.435;-0.139465
1.436;-0.139465
1.437;-0.139771
1.438;-0.139465
1.439;-0.13916
1.44;-0.13855
1.441;-0.137939
1.442;-0.137024
1.443;-0.136414
1.444;-0.135803
1.445;-0.135193
1.446;-0.134888
1.447;-0.134583
1.448;-0.134277
1.449;-0.133972
1.45;-0.133667
1.451;-0.133362
1.452;-0.133057
1.453;-0.133057
1.454;-0.132446
1.455;-0.132141
1.456;-0.131531
1.457;-0.131226
1.458;-0.131226
1.459;-0.131226
1.46;-0.131226
1.461;-0.131836
1.462;-0.132446
1.463;-0.133667
1.464;-0.134583
1.465;-0.135498
1.466;-0.135803
1.467;-0.135803
1.468;-0.135498
1.469;-0.134888
1.47;-0.134277
1.471;-0.133972
1.472;-0.133972
1.473;-0.134277
1.474;-0.134583
1.475;-0.134888
1.476;-0.135193
1.477;-0.135498
1.478;-0.135803
1.479;-0.136108
1.48;-0.136108
1.481;-0.136414
1.482;-0.136414
1.483;-0.136108
1.484;-0.136108
1.485;-0.135803
1.486;-0.135498
1.487;-0.134888
1.488;-0.134277
1.489;-0.133362
1.49;-0.132446
1.491;-0.131226
1.492;-0.1297
1.493;-0.127258
1.494;-0.124207
1.495;-0.120544
1.496;-0.116577
1.497;-0.112
1.498;-0.107422
1.499;-0.102844
1.5;-0.0985718
1.501;-0.0946045
1.502;-0.0909424
1.503;-0.0878906
1.504;-0.0848389
1.505;-0.0820923
1.506;-0.0799561
1.507;-0.0775146
1.508;-0.0756836
1.509;-0.0738525
1.51;-0.0723267
1.511;-0.071106
1.512;-0.0701904
1.513;-0.0695801
1.514;-0.0692749
1.515;-0.0689697
1.516;-0.0689697
1.517;-0.0692749
1.518;-0.0698853
1.519;-0.0701904
1.52;-0.0704956
1.521;-0.0708008
1.522;-0.0704956
1.523;-0.0698853
1.524;-0.0686646
1.525;-0.0668335
1.526;-0.0646973
1.527;-0.0622559
1.528;-0.0595093
1.529;-0.0564575
1.53;-0.0540161
1.531;-0.0512695
1.532;-0.0488281
1.533;-0.0466919
1.534;-0.0445557
1.535;-0.0430298
1.536;-0.0418091
1.537;-0.0408936
1.538;-0.0408936
1.539;-0.0415039
1.54;-0.0424194
1.541;-0.0442505
1.542;-0.0460815
1.543;-0.0485229
1.544;-0.0509644
1.545;-0.0537109
1.546;-0.0561523
1.547;-0.0592041
1.548;-0.0619507
1.549;-0.0646973
1.55;-0.067749
1.551;-0.071106
1.552;-0.0741577
1.553;-0.0772095
1.554;-0.0802612
1.555;-0.0836182
1.556;-0.0869751
1.557;-0.090332
1.558;-0.093689
1.559;-0.0967407
1.56;-0.0997925
1.561;-0.102844
1.562;-0.105896
1.563;-0.108948
1.564;-0.111389
1.565;-0.113525
1.566;-0.115356
1.567;-0.117188
1.568;-0.119019
1.569;-0.12085
1.57;-0.122986
1.571;-0.124817
1.572;-0.126953
1.573;-0.129089
1.574;-0.131531
1.575;-0.134277
1.576;-0.136414
1.577;-0.137939
1.578;-0.13855
1.579;-0.13855
1.58;-0.138245
1.581;-0.137634
1.582;-0.137329
1.583;-0.137024
1.584;-0.137024
1.585;-0.137329
1.586;-0.137634
1.587;-0.138245
1.588;-0.13916
1.589;-0.140076
1.59;-0.140991
1.591;-0.141296
1.592;-0.141602
1.593;-0.141907
1.594;-0.141907
1.595;-0.142212
1.596;-0.142517
1.597;-0.142517
1.598;-0.142212
1.599;-0.141602
1.6;-0.140686
1.601;-0.13916
1.602;-0.137329
1.603;-0.134277
1.604;-0.130615
1.605;-0.126038
1.606;-0.120239
1.607;-0.11322
1.608;-0.105286
1.609;-0.09552
1.61;-0.0845337
1.611;-0.0720215
1.612;-0.0576782
1.613;-0.0415039
1.614;-0.0234985
1.615;-0.00305176
1.616;0.0195312
1.617;0.0445557
1.618;0.0723267
1.619;0.102844
1.62;0.136108
1.621;0.171509
1.622;0.20874
1.623;0.247498
1.624;0.28656
1.625;0.325317
1.626;0.362549
1.627;0.398254
1.628;0.431519
1.629;0.462341
1.63;0.491333
1.631;0.517578
1.632;0.541992
1.633;0.56366
1.634;0.582275
1.635;0.596924
1.636;0.605774
1.637;0.608521
1.638;0.604248
1.639;0.593262
1.64;0.574951
1.641;0.550537
1.642;0.52002
1.643;0.484009
1.644;0.444031
1.645;0.39978
1.646;0.352783
1.647;0.30304
1.648;0.25116
1.649;0.198364
1.65;0.145264
1.651;0.0927734
1.652;0.0421143
1.653;-0.00610352
1.654;-0.0512695
1.655;-0.0921631
1.656;-0.129089
1.657;-0.161438
1.658;-0.188293
1.659;-0.210266
1.66;-0.22644
1.661;-0.237427
1.662;-0.24292
1.663;-0.243835
1.664;-0.240173
1.665;-0.232544
1.666;-0.221558
1.667;-0.208435
1.668;-0.193176
1.669;-0.177002
1.67;-0.160217
1.671;-0.143738
1.672;-0.127869
1.673;-0.112915
1.674;-0.0997925
1.675;-0.0881958
1.676;-0.0784302
1.677;-0.0708008
1.678;-0.0656128
1.679;-0.0619507
1.68;-0.0601196
1.681;-0.0595093
1.682;-0.06073
1.683;-0.062561
1.684;-0.0656128
1.685;-0.0686646
1.686;-0.0720215
1.687;-0.0750732
1.688;-0.0775146
1.689;-0.0799561
1.69;-0.0820923
1.691;-0.0842285
1.692;-0.0857544
1.693;-0.0869751
1.694;-0.0875854
1.695;-0.0878906
1.696;-0.0875854
1.697;-0.0869751
1.698;-0.0866699
1.699;-0.0863647
1.7;-0.0860596
1.701;-0.0860596
1.702;-0.0860596
1.703;-0.0863647
1.704;-0.0863647
1.705;-0.0863647
1.706;-0.0866699
1.707;-0.0866699
1.708;-0.0866699
1.709;-0.0863647
1.71;-0.0857544
1.711;-0.085144
1.712;-0.0845337
1.713;-0.0842285
1.714;-0.0842285
1.715;-0.0845337
1.716;-0.0848389
1.717;-0.085144
1.718;-0.085144
1.719;-0.085144
1.72;-0.085144
1.721;-0.0845337
1.722;-0.0839233
1.723;-0.083313
1.724;-0.0827026
1.725;-0.0823975
1.726;-0.0820923
1.727;-0.0814819
1.728;-0.0811768
1.729;-0.0805664
1.73;-0.0793457
1.731;-0.078125
1.732;-0.0762939
1.733;-0.0744629
1.734;-0.0723267
1.735;-0.0704956
1.736;-0.0683594
1.737;-0.0662231
1.738;-0.0640869
1.739;-0.0619507
1.74;-0.0598145
1.741;-0.057373
1.742;-0.0552368
1.743;-0.0531006
1.744;-0.0512695
1.745;-0.0497437
1.746;-0.0482178
1.747;-0.0469971
1.748;-0.0457764
1.749;-0.045166
1.75;-0.0448608
1.751;-0.0448608
1.752;-0.0454712
1.753;-0.0460815
1.754;-0.0469971
1.755;-0.0479126
1.756;-0.0485229
1.757;-0.0488281
1.758;-0.0488281
1.759;-0.0485229
1.76;-0.0476074
1.761;-0.0466919
1.762;-0.0454712
1.763;-0.0439453
1.764;-0.0424194
1.765;-0.0408936
1.766;-0.0396729
1.767;-0.0387573
1.768;-0.0378418
1.769;-0.0366211
1.77;-0.0350952
1.771;-0.0332642
1.772;-0.0314331
1.773;-0.0289917
1.774;-0.0265503
1.775;-0.0241089
1.776;-0.0219727
1.777;-0.0195312
1.778;-0.0177002
1.779;-0.0158691
1.78;-0.0146484
1.781;-0.0131226
1.782;-0.012207
1.783;-0.0109863
1.784;-0.00976562
1.785;-0.00854492
1.786;-0.00671387
1.787;-0.00518799
1.788;-0.00335693
1.789;-0.00152588
1.79;0.000305176
1.791;0.00244141
1.792;0.00427246
1.793;0.00610352
1.794;0.00793457
1.795;0.00976562
1.796;0.0119019
1.797;0.0143433
1.798;0.0164795
1.799;0.0189209
1.8;0.0210571
1.801;0.0231934
1.802;0.0253296
1.803;0.0274658
1.804;0.0289917
1.805;0.0305176
1.806;0.0320435
1.807;0.0341797
1.808;0.0363159
1.809;0.0384521
1.81;0.0405884
1.811;0.0427246
1.812;0.0448608
1.813;0.0466919
1.814;0.0488281
1.815;0.0506592
1.816;0.0531006
1.817;0.0552368
1.818;0.0576782
1.819;0.0601196
1.82;0.0628662
1.821;0.0656128
1.822;0.0689697
1.823;0.0726318
1.824;0.0762939
1.825;0.0799561
1.826;0.0836182
1.827;0.0869751
1.828;0.0909424
1.829;0.0946045
1.83;0.0985718
1.831;0.102234
1.832;0.105591
1.833;0.108948
1.834;0.111389
1.835;0.113525
1.836;0.115051
1.837;0.115967
1.838;0.116272
1.839;0.116882
1.84;0.117493
1.841;0.118103
1.842;0.119019
1.843;0.119934
1.844;0.12085
1.845;0.121765
1.846;0.122375
1.847;0.122986
1.848;0.123596
1.849;0.123901
1.85;0.124512
1.851;0.125427
1.852;0.126648
1.853;0.127869
1.854;0.1297
1.855;0.131531
1.856;0.133667
1.857;0.136108
1.858;0.138245
1.859;0.140686
1.86;0.143127
1.861;0.145264
1.862;0.147705
1.863;0.149841
1.864;0.151978
1.865;0.154114
1.866;0.15625
1.867;0.158081
1.868;0.160217
1.869;0.162048
1.87;0.163574
1.871;0.1651
1.872;0.166321
1.873;0.166626
1.874;0.166321
1.875;0.1651
1.876;0.163269
1.877;0.161133
1.878;0.158691
1.879;0.155945
1.88;0.153198
1.881;0.150146
1.882;0.147095
1.883;0.143433
1.884;0.139771
1.885;0.136108
1.886;0.132141
1.887;0.128174
1.888;0.124512
1.889;0.120239
1.89;0.116272
1.891;0.112305
1.892;0.108643
1.893;0.105591
1.894;0.102539
1.895;0.0994873
1.896;0.0964355
1.897;0.0933838
1.898;0.0900269
1.899;0.0866699
1.9;0.0830078
1.901;0.0793457
1.902;0.0756836
1.903;0.0717163
1.904;0.0680542
1.905;0.0640869
1.906;0.0598145
1.907;0.055542
1.908;0.0506592
1.909;0.0457764
1.91;0.0402832
1.911;0.03479
1.912;0.0292969
1.913;0.0234985
1.914;0.0180054
1.915;0.0125122
1.916;0.00701904
1.917;0.00152588
1.918;-0.00366211
1.919;-0.00915527
1.92;-0.0146484
1.921;-0.0201416
1.922;-0.0259399
1.923;-0.0314331
1.924;-0.0372314
1.925;-0.0430298
1.926;-0.0485229
1.927;-0.0537109
1.928;-0.0585938
1.929;-0.0637817
1.93;-0.0686646
1.931;-0.0735474
1.932;-0.078125
1.933;-0.0827026
1.934;-0.0872803
1.935;-0.0915527
1.936;-0.0952148
1.937;-0.098877
1.938;-0.102539
1.939;-0.105591
1.94;-0.108948
1.941;-0.111694
1.942;-0.113831
1.943;-0.115967
1.944;-0.117798
1.945;-0.119629
1.946;-0.121155
1.947;-0.122681
1.948;-0.124207
1.949;-0.125732
1.95;-0.127563
1.951;-0.129089
1.952;-0.13031
1.953;-0.131531
1.954;-0.132751
1.955;-0.133667
1.956;-0.134888
1.957;-0.135498
1.958;-0.136108
1.959;-0.136719
1.96;-0.137024
1.961;-0.137634
1.962;-0.137939
1.963;-0.138245
1.964;-0.13855
1.965;-0.13855
1.966;-0.138245
1.967;-0.137939
1.968;-0.137329
1.969;-0.136414
1.97;-0.135803
1.971;-0.134888
1.972;-0.134277
1.973;-0.133972
1.974;-0.133972
1.975;-0.133972
1.976;-0.134277
1.977;-0.134583
1.978;-0.134888
1.979;-0.135498
1.98;-0.136108
1.981;-0.136719
1.982;-0.137329
1.983;-0.138245
1.984;-0.139465
1.985;-0.140686
1.986;-0.142517
1.987;-0.144043
1.988;-0.145264
1.989;-0.146484
1.99;-0.1474
1.991;-0.1474
1.992;-0.1474
1.993;-0.146484
1.994;-0.145264
1.995;-0.144043
1.996;-0.142212
1.997;-0.140686
1.998;-0.13916
1.999;-0.137634
2;-0.136108
2.001;-0.134277
2.002;-0.132141
2.003;-0.13031
2.004;-0.128479
2.005;-0.127258
2.006;-0.125732
2.007;-0.124512
2.008;-0.123596
2.009;-0.122681
2.01;-0.12207
2.011;-0.12207
2.012;-0.122375
2.013;-0.122986
2.014;-0.123596
2.015;-0.123901
2.016;-0.124207
2.017;-0.124207
2.018;-0.123901
2.019;-0.123291
2.02;-0.12207
2.021;-0.120544
2.022;-0.118713
2.023;-0.116882
2.024;-0.114441
2.025;-0.112
2.026;-0.109558
2.027;-0.106812
2.028;-0.104065
2.029;-0.101013
2.03;-0.0979614
2.031;-0.0949097
2.032;-0.0921631
2.033;-0.0900269
2.034;-0.088501
2.035;-0.0875854
2.036;-0.0875854
2.037;-0.0881958
2.038;-0.0888062
2.039;-0.0900269
2.04;-0.0912476
2.041;-0.0927734
2.042;-0.0942993
2.043;-0.0958252
2.044;-0.0973511
2.045;-0.0985718
2.046;-0.0997925
2.047;-0.101013
2.048;-0.102234
2.049;-0.102844
2.05;-0.103149
2.051;-0.102844
2.052;-0.101624
2.053;-0.0994873
2.054;-0.0967407
2.055;-0.093689
2.056;-0.0900269
2.057;-0.0863647
2.058;-0.0830078
2.059;-0.0793457
2.06;-0.0762939
2.061;-0.0738525
2.062;-0.0720215
2.063;-0.0704956
2.064;-0.0695801
2.065;-0.0686646
2.066;-0.0680542
2.067;-0.0674438
2.068;-0.0668335
2.069;-0.0662231
2.07;-0.0662231
2.071;-0.0662231
2.072;-0.0668335
2.073;-0.067749
2.074;-0.0689697
2.075;-0.0698853
2.076;-0.0704956
2.077;-0.071106
2.078;-0.071106
2.079;-0.071106
2.08;-0.0704956
2.081;-0.0698853
2.082;-0.0692749
2.083;-0.0683594
2.084;-0.0674438
2.085;-0.0671387
2.086;-0.0671387
2.087;-0.067749
2.088;-0.0686646
2.089;-0.0695801
2.09;-0.0701904
2.091;-0.0708008
2.092;-0.0714111
2.093;-0.0717163
2.094;-0.0723267
2.095;-0.0726318
2.096;-0.072937
2.097;-0.072937
2.098;-0.0726318
2.099;-0.0720215
2.1;-0.071106
2.101;-0.0698853
2.102;-0.0683594
2.103;-0.0668335
2.104;-0.0653076
2.105;-0.0637817
2.106;-0.062561
2.107;-0.0613403
2.108;-0.0604248
2.109;-0.0601196
2.11;-0.0604248
2.111;-0.06073
2.112;-0.0616455
2.113;-0.0628662
2.114;-0.0646973
2.115;-0.0671387
2.116;-0.0695801
2.117;-0.0726318
2.118;-0.0759888
2.119;-0.0793457
2.12;-0.0823975
2.121;-0.0854492
2.122;-0.0881958
2.123;-0.0906372
2.124;-0.0924683
2.125;-0.093689
2.126;-0.0942993
2.127;-0.0939941
2.128;-0.0933838
2.129;-0.0921631
2.13;-0.090332
2.131;-0.0881958
2.132;-0.0854492
2.133;-0.0830078
2.134;-0.0799561
2.135;-0.0775146
2.136;-0.0747681
2.137;-0.0726318
2.138;-0.071106
2.139;-0.0698853
2.14;-0.0692749
2.141;-0.0686646
2.142;-0.0683594
2.143;-0.0683594
2.144;-0.0683594
2.145;-0.0689697
2.146;-0.0695801
2.147;-0.0708008
2.148;-0.0723267
2.149;-0.0741577
2.15;-0.0756836
2.151;-0.0769043
2.152;-0.078125
2.153;-0.0790405
2.154;-0.0796509
2.155;-0.0799561
2.156;-0.0799561
2.157;-0.0796509
2.158;-0.0790405
2.159;-0.078125
2.16;-0.0769043
2.161;-0.0756836
2.162;-0.0741577
2.163;-0.072937
2.164;-0.0720215
2.165;-0.071106
2.166;-0.0704956
2.167;-0.0704956
2.168;-0.0701904
2.169;-0.0701904
2.17;-0.0704956
2.171;-0.0708008
2.172;-0.0714111
2.173;-0.0720215
2.174;-0.0726318
2.175;-0.0732422
2.176;-0.0741577
2.177;-0.0750732
2.178;-0.0759888
2.179;-0.0769043
2.18;-0.0778198
2.181;-0.0787354
2.182;-0.0793457
2.183;-0.0796509
2.184;-0.0796509
2.185;-0.0799561
2.186;-0.0799561
2.187;-0.0796509
2.188;-0.0796509
2.189;-0.0793457
2.19;-0.0787354
2.191;-0.078125
2.192;-0.0778198
2.193;-0.0775146
2.194;-0.0775146
2.195;-0.0778198
2.196;-0.078125
2.197;-0.0784302
2.198;-0.0787354
2.199;-0.0790405
2.2;-0.0793457
2.201;-0.0796509
2.202;-0.0802612
2.203;-0.0811768
2.204;-0.0823975
2.205;-0.0836182
2.206;-0.0848389
2.207;-0.0857544
2.208;-0.0863647
2.209;-0.0866699
2.21;-0.0860596
2.211;-0.0854492
2.212;-0.0842285
2.213;-0.0827026
2.214;-0.0808716
2.215;-0.0787354
2.216;-0.0759888
2.217;-0.0732422
2.218;-0.0704956
2.219;-0.067749
2.22;-0.0656128
2.221;-0.0637817
2.222;-0.0619507
2.223;-0.06073
2.224;-0.0601196
2.225;-0.0598145
2.226;-0.0601196
2.227;-0.0601196
2.228;-0.06073
2.229;-0.0616455
2.23;-0.0628662
2.231;-0.0646973
2.232;-0.0668335
2.233;-0.0695801
2.234;-0.0723267
2.235;-0.0753784
2.236;-0.0784302
2.237;-0.0811768
2.238;-0.0836182
2.239;-0.0857544
2.24;-0.0872803
2.241;-0.0881958
2.242;-0.088501
2.243;-0.0878906
2.244;-0.0869751
2.245;-0.0854492
2.246;-0.0836182
2.247;-0.0814819
2.248;-0.0790405
2.249;-0.0765991
2.25;-0.0738525
2.251;-0.071106
2.252;-0.0683594
2.253;-0.065918
2.254;-0.0631714
2.255;-0.0610352
2.256;-0.0588989
2.257;-0.057373
2.258;-0.0564575
2.259;-0.0558472
2.26;-0.0558472
2.261;-0.0564575
2.262;-0.057373
2.263;-0.0585938
2.264;-0.0598145
2.265;-0.0613403
2.266;-0.0628662
2.267;-0.0640869
2.268;-0.0656128
2.269;-0.0671387
2.27;-0.0686646
2.271;-0.0704956
2.272;-0.0720215
2.273;-0.0738525
2.274;-0.0756836
2.275;-0.0778198
2.276;-0.0796509
2.277;-0.0814819
2.278;-0.0830078
2.279;-0.0848389
2.28;-0.0860596
2.281;-0.0869751
2.282;-0.0872803
2.283;-0.0872803
2.284;-0.0869751
2.285;-0.0863647
2.286;-0.0854492
2.287;-0.0845337
2.288;-0.083313
2.289;-0.0823975
2.29;-0.0811768
2.291;-0.0799561
2.292;-0.0787354
2.293;-0.0775146
2.294;-0.0759888
2.295;-0.0744629
2.296;-0.072937
2.297;-0.0717163
2.298;-0.0704956
2.299;-0.0692749
2.3;-0.0680542
2.301;-0.0671387
2.302;-0.0668335
2.303;-0.0665283
2.304;-0.0668335
2.305;-0.0671387
2.306;-0.067749
2.307;-0.0683594
2.308;-0.0686646
2.309;-0.0689697
2.31;-0.0692749
2.311;-0.0695801
2.312;-0.0698853
2.313;-0.0704956
2.314;-0.0708008
2.315;-0.071106
2.316;-0.0714111
2.317;-0.071106
2.318;-0.0701904
2.319;-0.0683594
2.32;-0.0662231
2.321;-0.0640869
2.322;-0.0622559
2.323;-0.0604248
2.324;-0.0588989
2.325;-0.0576782
2.326;-0.0564575
2.327;-0.0549316
2.328;-0.0537109
2.329;-0.0524902
2.33;-0.0512695
2.331;-0.0500488
2.332;-0.0488281
2.333;-0.0479126
2.334;-0.0473022
2.335;-0.0466919
2.336;-0.0463867
2.337;-0.0457764
2.338;-0.0454712
2.339;-0.0448608
2.34;-0.0445557
2.341;-0.0442505
2.342;-0.0439453
2.343;-0.043335
2.344;-0.0427246
2.345;-0.0421143
2.346;-0.0415039
2.347;-0.0408936
2.348;-0.0402832
2.349;-0.0396729
2.35;-0.0390625
2.351;-0.038147
2.352;-0.0366211
2.353;-0.03479
2.354;-0.0323486
2.355;-0.0302124
2.356;-0.027771
2.357;-0.0253296
2.358;-0.0228882
2.359;-0.0204468
2.36;-0.0177002
2.361;-0.0149536
2.362;-0.012207
2.363;-0.00915527
2.364;-0.00640869
2.365;-0.00335693
2.366;-0.000610352
2.367;0.00183105
2.368;0.00396729
2.369;0.00610352
2.37;0.00793457
2.371;0.00976562
2.372;0.0112915
2.373;0.0128174
2.374;0.0137329
2.375;0.0143433
2.376;0.0143433
2.377;0.0146484
2.378;0.0143433
2.379;0.0134277
2.38;0.012207
2.381;0.010376
2.382;0.00854492
2.383;0.00610352
2.384;0.00335693
2.385;0.000305176
2.386;-0.00274658
2.387;-0.00610352
2.388;-0.00976562
2.389;-0.0140381
2.39;-0.0186157
2.391;-0.0234985
2.392;-0.0289917
2.393;-0.0344849
2.394;-0.0396729
2.395;-0.045166
2.396;-0.050354
2.397;-0.0549316
2.398;-0.0595093
2.399;-0.0634766
2.4;-0.0668335
2.401;-0.0695801
2.402;-0.0714111
2.403;-0.072937
2.404;-0.0741577
2.405;-0.0750732
2.406;-0.0756836
2.407;-0.0756836
2.408;-0.0756836
2.409;-0.0753784
2.41;-0.0750732
2.411;-0.0744629
2.412;-0.0738525
2.413;-0.0735474
2.414;-0.0738525
2.415;-0.0741577
2.416;-0.0750732
2.417;-0.0759888
2.418;-0.0765991
2.419;-0.0775146
2.42;-0.0787354
2.421;-0.0799561
2.422;-0.0817871
2.423;-0.0839233
2.424;-0.0866699
2.425;-0.0894165
2.426;-0.0924683
2.427;-0.09552
2.428;-0.098877
2.429;-0.101929
2.43;-0.10498
2.431;-0.107727
2.432;-0.110168
2.433;-0.112
2.434;-0.11322
2.435;-0.113525
2.436;-0.11322
2.437;-0.112305
2.438;-0.110168
2.439;-0.107117
2.44;-0.102844
2.441;-0.0976562
2.442;-0.0906372
2.443;-0.0820923
2.444;-0.0717163
2.445;-0.0595093
2.446;-0.0454712
2.447;-0.0292969
2.448;-0.0106812
2.449;0.010376
2.45;0.0341797
2.451;0.0610352
2.452;0.0906372
2.453;0.123291
2.454;0.158691
2.455;0.196838
2.456;0.236816
2.457;0.278015
2.458;0.320129
2.459;0.362244
2.46;0.403137
2.461;0.441895
2.462;0.477905
2.463;0.510864
2.464;0.540771
2.465;0.567322
2.466;0.590515
2.467;0.610046
2.468;0.625
2.469;0.635071
2.47;0.639038
2.471;0.636292
2.472;0.626831
2.473;0.610962
2.474;0.588684
2.475;0.560608
2.476;0.526733
2.477;0.487671
2.478;0.444641
2.479;0.397949
2.48;0.348816
2.481;0.297852
2.482;0.245972
2.483;0.193787
2.484;0.142517
2.485;0.0924683
2.486;0.0448608
2.487;0.000305176
2.488;-0.0405884
2.489;-0.0775146
2.49;-0.109863
2.491;-0.137634
2.492;-0.161133
2.493;-0.179749
2.494;-0.193787
2.495;-0.203247
2.496;-0.20813
2.497;-0.20874
2.498;-0.205688
2.499;-0.198975
2.5;-0.189209
2.501;-0.177307
2.502;-0.163574
2.503;-0.148621
2.504;-0.133362
2.505;-0.118103
2.506;-0.103149
2.507;-0.0891113
2.508;-0.0759888
2.509;-0.0640869
2.51;-0.0537109
2.511;-0.0448608
2.512;-0.0375366
2.513;-0.0317383
2.514;-0.027771
2.515;-0.0253296
2.516;-0.0253296
2.517;-0.0265503
2.518;-0.0292969
2.519;-0.0326538
2.52;-0.0366211
2.521;-0.0405884
2.522;-0.0445557
2.523;-0.0485229
2.524;-0.0527954
2.525;-0.0567627
2.526;-0.06073
2.527;-0.0646973
2.528;-0.0683594
2.529;-0.0717163
2.53;-0.0744629
2.531;-0.0769043
2.532;-0.0787354
2.533;-0.0796509
2.534;-0.0796509
2.535;-0.0790405
2.536;-0.0784302
2.537;-0.0772095
2.538;-0.0759888
2.539;-0.0744629
2.54;-0.072937
2.541;-0.071106
2.542;-0.0689697
2.543;-0.0668335
2.544;-0.0646973
2.545;-0.0628662
2.546;-0.0613403
2.547;-0.0598145
2.548;-0.0585938
2.549;-0.0579834
2.55;-0.0579834
2.551;-0.0579834
2.552;-0.0585938
2.553;-0.0592041
2.554;-0.0601196
2.555;-0.0610352
2.556;-0.0616455
2.557;-0.0616455
2.558;-0.0616455
2.559;-0.0613403
2.56;-0.06073
2.561;-0.0601196
2.562;-0.0595093
2.563;-0.0588989
2.564;-0.0579834
2.565;-0.0567627
2.566;-0.055542
2.567;-0.0540161
2.568;-0.0521851
2.569;-0.050354
2.57;-0.0485229
2.571;-0.0463867
2.572;-0.0445557
2.573;-0.0427246
2.574;-0.0411987
2.575;-0.039978
2.576;-0.0390625
2.577;-0.0387573
2.578;-0.0387573
2.579;-0.0390625
2.58;-0.0393677
2.581;-0.0393677
2.582;-0.0387573
2.583;-0.0378418
2.584;-0.0363159
2.585;-0.03479
2.586;-0.032959
2.587;-0.0314331
2.588;-0.0292969
2.589;-0.0274658
2.59;-0.0250244
2.591;-0.022583
2.592;-0.0198364
2.593;-0.0167847
2.594;-0.0140381
2.595;-0.0109863
2.596;-0.00793457
2.597;-0.00518799
2.598;-0.00305176
2.599;-0.000915527
2.6;0.000610352
2.601;0.00183105
2.602;0.00244141
2.603;0.00274658
2.604;0.00244141
2.605;0.00213623
2.606;0.0012207
2.607;0.000305176
2.608;-0.000915527
2.609;-0.00244141
2.61;-0.00396729
2.611;-0.00549316
2.612;-0.00671387
2.613;-0.00762939
2.614;-0.00854492
2.615;-0.00915527
2.616;-0.00946045
2.617;-0.00946045
2.618;-0.00915527
2.619;-0.00854492
2.62;-0.00732422
2.621;-0.00579834
2.622;-0.00366211
2.623;-0.0012207
2.624;0.00152588
2.625;0.00427246
2.626;0.00732422
2.627;0.0100708
2.628;0.0125122
2.629;0.0146484
2.63;0.0167847
2.631;0.0192261
2.632;0.0213623
2.633;0.0238037
2.634;0.0259399
2.635;0.0280762
2.636;0.0302124
2.637;0.0323486
2.638;0.0344849
2.639;0.0363159
2.64;0.0387573
2.641;0.0408936
2.642;0.0436401
2.643;0.0457764
2.644;0.0473022
2.645;0.0485229
2.646;0.0494385
2.647;0.0500488
2.648;0.0506592
2.649;0.0509644
2.65;0.0515747
2.651;0.0521851
2.652;0.0524902
2.653;0.0531006
2.654;0.0531006
2.655;0.0527954
2.656;0.0524902
2.657;0.0521851
2.658;0.0515747
2.659;0.0512695
2.66;0.0509644
2.661;0.0506592
2.662;0.0506592
2.663;0.0512695
2.664;0.0521851
2.665;0.0537109
2.666;0.0558472
2.667;0.0579834
2.668;0.06073
2.669;0.0637817
2.67;0.0668335
2.671;0.0698853
2.672;0.072937
2.673;0.0759888
2.674;0.0787354
2.675;0.0817871
2.676;0.0845337
2.677;0.0869751
2.678;0.0891113
2.679;0.0912476
2.68;0.0933838
2.681;0.09552
2.682;0.0973511
2.683;0.098877
2.684;0.0997925
2.685;0.100708
2.686;0.101318
2.687;0.101929
2.688;0.102539
2.689;0.103149
2.69;0.10376
2.691;0.104675
2.692;0.105896
2.693;0.106812
2.694;0.108337
2.695;0.109558
2.696;0.111389
2.697;0.112915
2.698;0.114441
2.699;0.115662
2.7;0.116882
2.701;0.118408
2.702;0.119934
2.703;0.12146
2.704;0.123291
2.705;0.124817
2.706;0.126343
2.707;0.128174
2.708;0.1297
2.709;0.13092
2.71;0.131836
2.711;0.132751
2.712;0.133362
2.713;0.133362
2.714;0.132751
2.715;0.131226
2.716;0.129089
2.717;0.126648
2.718;0.123291
2.719;0.119934
2.72;0.116272
2.721;0.112305
2.722;0.108643
2.723;0.104675
2.724;0.100708
2.725;0.0967407
2.726;0.0930786
2.727;0.0894165
2.728;0.0863647
2.729;0.083313
2.73;0.0805664
2.731;0.0778198
2.732;0.0747681
2.733;0.0714111
2.734;0.067749
2.735;0.0640869
2.736;0.0601196
2.737;0.0561523
2.738;0.0518799
2.739;0.0473022
2.74;0.0424194
2.741;0.0369263
2.742;0.0311279
2.743;0.0247192
2.744;0.0180054
2.745;0.0112915
2.746;0.00427246
2.747;-0.00305176
2.748;-0.0106812
2.749;-0.0180054
2.75;-0.0253296
2.751;-0.0323486
2.752;-0.0387573
2.753;-0.0448608
2.754;-0.050354
2.755;-0.0552368
2.756;-0.0595093
2.757;-0.0631714
2.758;-0.0665283
2.759;-0.0698853
2.76;-0.072937
2.761;-0.0756836
2.762;-0.078125
2.763;-0.0808716
2.764;-0.083313
2.765;-0.0860596
2.766;-0.0888062
2.767;-0.0918579
2.768;-0.0952148
2.769;-0.0982666
2.77;-0.101318
2.771;-0.104675
2.772;-0.107727
2.773;-0.110779
2.774;-0.11322
2.775;-0.115051
2.776;-0.116577
2.777;-0.118103
2.778;-0.119324
2.779;-0.120544
2.78;-0.12146
2.781;-0.12207
2.782;-0.122375
2.783;-0.122681
2.784;-0.122681
2.785;-0.122986
2.786;-0.123596
2.787;-0.124512
2.788;-0.125427
2.789;-0.126953
2.79;-0.128784
2.791;-0.131226
2.792;-0.133667
2.793;-0.136108
2.794;-0.13855
2.795;-0.140381
2.796;-0.141907
2.797;-0.143127
2.798;-0.143738
2.799;-0.144348
2.8;-0.145264
2.801;-0.146179
2.802;-0.14679
2.803;-0.147095
2.804;-0.147095
2.805;-0.146484
2.806;-0.145264
2.807;-0.143738
2.808;-0.142212
2.809;-0.140991
2.81;-0.140076
2.811;-0.13916
2.812;-0.138855
2.813;-0.138855
2.814;-0.138855
2.815;-0.138855
2.816;-0.138855
2.817;-0.13855
2.818;-0.137939
2.819;-0.137634
2.82;-0.137939
2.821;-0.13855
2.822;-0.139771
2.823;-0.140686
2.824;-0.141602
2.825;-0.142212
2.826;-0.142517
2.827;-0.142212
2.828;-0.141296
2.829;-0.140076
2.83;-0.13855
2.831;-0.137024
2.832;-0.135498
2.833;-0.133972
2.834;-0.132751
2.835;-0.131531
2.836;-0.13031
2.837;-0.129395
2.838;-0.128479
2.839;-0.128174
2.84;-0.127563
2.841;-0.127258
2.842;-0.126648
2.843;-0.126038
2.844;-0.125122
2.845;-0.124207
2.846;-0.123596
2.847;-0.122681
2.848;-0.12146
2.849;-0.120239
2.85;-0.118713
2.851;-0.116882
2.852;-0.115356
2.853;-0.113525
2.854;-0.112
2.855;-0.110474
2.856;-0.108643
2.857;-0.107117
2.858;-0.105286
2.859;-0.10376
2.86;-0.101929
2.861;-0.100403
2.862;-0.098877
2.863;-0.0973511
2.864;-0.0958252
2.865;-0.0942993
2.866;-0.0930786
2.867;-0.0918579
2.868;-0.0906372
2.869;-0.0891113
2.87;-0.0878906
2.871;-0.0869751
2.872;-0.0860596
2.873;-0.0857544
2.874;-0.085144
2.875;-0.0848389
2.876;-0.0845337
2.877;-0.0842285
2.878;-0.0839233
2.879;-0.0839233
2.88;-0.0839233
2.881;-0.0839233
2.882;-0.0839233
2.883;-0.0836182
2.884;-0.0836182
2.885;-0.0839233
2.886;-0.0845337
2.887;-0.0848389
2.888;-0.0854492
2.889;-0.0857544
2.89;-0.0857544
2.891;-0.0854492
2.892;-0.085144
2.893;-0.0842285
2.894;-0.0830078
2.895;-0.0814819
2.896;-0.0799561
2.897;-0.078125
2.898;-0.0762939
2.899;-0.0747681
2.9;-0.0732422
2.901;-0.0720215
2.902;-0.071106
2.903;-0.0708008
2.904;-0.0708008
2.905;-0.071106
2.906;-0.0717163
2.907;-0.0720215
2.908;-0.0726318
2.909;-0.072937
2.91;-0.0732422
2.911;-0.0735474
2.912;-0.0741577
2.913;-0.0750732
2.914;-0.0759888
2.915;-0.0769043
2.916;-0.0772095
2.917;-0.0772095
2.918;-0.0769043
2.919;-0.0759888
2.92;-0.0747681
2.921;-0.0732422
2.922;-0.0714111
2.923;-0.0689697
2.924;-0.0665283
2.925;-0.0637817
2.926;-0.0610352
2.927;-0.0582886
2.928;-0.055542
2.929;-0.0527954
2.93;-0.0506592
2.931;-0.0488281
2.932;-0.0473022
2.933;-0.0457764
2.934;-0.0448608
2.935;-0.0442505
2.936;-0.0439453
2.937;-0.0439453
2.938;-0.0439453
2.939;-0.0445557
2.94;-0.045166
2.941;-0.0460815
2.942;-0.0473022
2.943;-0.0491333
2.944;-0.0509644
2.945;-0.0527954
2.946;-0.0546265
2.947;-0.0561523
2.948;-0.0576782
2.949;-0.0592041
2.95;-0.0601196
2.951;-0.0610352
2.952;-0.0616455
2.953;-0.0622559
2.954;-0.062561
2.955;-0.0628662
2.956;-0.0631714
2.957;-0.0634766
2.958;-0.0643921
2.959;-0.0650024
2.96;-0.065918
2.961;-0.0671387
2.962;-0.0680542
2.963;-0.0689697
2.964;-0.0695801
2.965;-0.0695801
2.966;-0.0695801
2.967;-0.0689697
2.968;-0.0683594
2.969;-0.0674438
2.97;-0.0665283
2.971;-0.0656128
2.972;-0.0650024
2.973;-0.0640869
2.974;-0.0631714
2.975;-0.062561
2.976;-0.0616455
2.977;-0.06073
2.978;-0.0598145
2.979;-0.0582886
2.98;-0.0570679
2.981;-0.055542
2.982;-0.0543213
2.983;-0.0531006
2.984;-0.0521851
2.985;-0.0515747
2.986;-0.0515747
2.987;-0.0518799
2.988;-0.0524902
2.989;-0.0534058
2.99;-0.0546265
2.991;-0.0558472
2.992;-0.057373
2.993;-0.0588989
2.994;-0.06073
2.995;-0.0622559
2.996;-0.0637817
2.997;-0.0656128
2.998;-0.0671387
2.999;-0.0689697
3;-0.0708008
3.001;-0.0726318
3.002;-0.0738525
3.003;-0.0747681
3.004;-0.0753784
3.005;-0.0756836
3.006;-0.0759888
3.007;-0.0759888
3.008;-0.0756836
3.009;-0.0753784
3.01;-0.0744629
3.011;-0.0732422
3.012;-0.0726318
3.013;-0.0720215
3.014;-0.0717163
3.015;-0.0714111
3.016;-0.0714111
3.017;-0.071106
3.018;-0.0708008
3.019;-0.0701904
3.02;-0.0701904
3.021;-0.0701904
3.022;-0.0701904
3.023;-0.0701904
3.024;-0.0704956
3.025;-0.0708008
3.026;-0.0717163
3.027;-0.0723267
3.028;-0.072937
3.029;-0.0732422
3.03;-0.0738525
3.031;-0.0741577
3.032;-0.0744629
3.033;-0.0747681
3.034;-0.0747681
3.035;-0.0741577
3.036;-0.0732422
3.037;-0.0720215
3.038;-0.0701904
3.039;-0.0680542
3.04;-0.0656128
3.041;-0.0631714
3.042;-0.0610352
3.043;-0.0592041
3.044;-0.0582886
3.045;-0.0579834
3.046;-0.0585938
3.047;-0.0595093
3.048;-0.0604248
3.049;-0.0613403
3.05;-0.0622559
3.051;-0.0628662
3.052;-0.0637817
3.053;-0.0646973
3.054;-0.0656128
3.055;-0.0665283
3.056;-0.0674438
3.057;-0.0683594
3.058;-0.0689697
3.059;-0.0692749
3.06;-0.0692749
3.061;-0.0692749
3.062;-0.0692749
3.063;-0.0692749
3.064;-0.0686646
3.065;-0.0680542
3.066;-0.0668335
3.067;-0.0653076
3.068;-0.0634766
3.069;-0.0613403
3.07;-0.0592041
3.071;-0.0576782
3.072;-0.0564575
3.073;-0.055542
3.074;-0.0552368
3.075;-0.0549316
3.076;-0.0546265
3.077;-0.0549316
3.078;-0.055542
3.079;-0.0564575
3.08;-0.0579834
3.081;-0.0595093
3.082;-0.0616455
3.083;-0.0634766
3.084;-0.0656128
3.085;-0.0674438
3.086;-0.0692749
3.087;-0.0708008
3.088;-0.0723267
3.089;-0.0738525
3.09;-0.0750732
3.091;-0.0759888
3.092;-0.0765991
3.093;-0.0772095
3.094;-0.0775146
3.095;-0.078125
3.096;-0.0784302
3.097;-0.0787354
3.098;-0.0790405
3.099;-0.0790405
3.1;-0.0787354
3.101;-0.0784302
3.102;-0.0778198
3.103;-0.0772095
3.104;-0.0762939
3.105;-0.0756836
3.106;-0.0750732
3.107;-0.0747681
3.108;-0.0744629
3.109;-0.0744629
3.11;-0.0744629
3.111;-0.0744629
3.112;-0.0747681
3.113;-0.0750732
3.114;-0.0756836
3.115;-0.0762939
3.116;-0.0769043
3.117;-0.0772095
3.118;-0.0775146
3.119;-0.0778198
3.12;-0.078125
3.121;-0.078125
3.122;-0.0775146
3.123;-0.0765991
3.124;-0.0756836
3.125;-0.0741577
3.126;-0.072937
3.127;-0.0717163
3.128;-0.0704956
3.129;-0.0692749
3.13;-0.0683594
3.131;-0.067749
3.132;-0.0674438
3.133;-0.0674438
3.134;-0.067749
3.135;-0.0683594
3.136;-0.0689697
3.137;-0.0692749
3.138;-0.0695801
3.139;-0.0695801
3.14;-0.0695801
3.141;-0.0695801
3.142;-0.0698853
3.143;-0.0701904
3.144;-0.0704956
3.145;-0.071106
3.146;-0.071106
3.147;-0.071106
3.148;-0.0708008
3.149;-0.0701904
3.15;-0.0692749
3.151;-0.067749
3.152;-0.0656128
3.153;-0.0631714
3.154;-0.0601196
3.155;-0.0570679
3.156;-0.0534058
3.157;-0.0497437
3.158;-0.0460815
3.159;-0.0424194
3.16;-0.0387573
3.161;-0.0357056
3.162;-0.032959
3.163;-0.0305176
3.164;-0.0283813
3.165;-0.0268555
3.166;-0.0250244
3.167;-0.0234985
3.168;-0.0216675
3.169;-0.0195312
3.17;-0.0170898
3.171;-0.0143433
3.172;-0.0119019
3.173;-0.00976562
3.174;-0.00762939
3.175;-0.00579834
3.176;-0.00427246
3.177;-0.00274658
3.178;-0.00183105
3.179;-0.000610352
3.18;0
3.181;0.000915527
3.182;0.00152588
3.183;0.00213623
3.184;0.00244141
3.185;0.00274658
3.186;0.00274658
3.187;0.00244141
3.188;0.00183105
3.189;0.000610352
3.19;-0.000915527
3.191;-0.00305176
3.192;-0.00579834
3.193;-0.00854492
3.194;-0.0115967
3.195;-0.0149536
3.196;-0.0183105
3.197;-0.0213623
3.198;-0.0244141
3.199;-0.0274658
3.2;-0.0299072
3.201;-0.0317383
3.202;-0.0332642
3.203;-0.03479
3.204;-0.0363159
3.205;-0.0384521
3.206;-0.0408936
3.207;-0.0436401
3.208;-0.0466919
3.209;-0.0500488
3.21;-0.0534058
3.211;-0.0570679
3.212;-0.0604248
3.213;-0.0637817
3.214;-0.0668335
3.215;-0.0701904
3.216;-0.0732422
3.217;-0.0762939
3.218;-0.0790405
3.219;-0.0814819
3.22;-0.083313
3.221;-0.0854492
3.222;-0.0869751
3.223;-0.0881958
3.224;-0.0891113
3.225;-0.0897217
3.226;-0.0900269
3.227;-0.0900269
3.228;-0.0897217
3.229;-0.0894165
3.23;-0.0891113
3.231;-0.088501
3.232;-0.0875854
3.233;-0.0869751
3.234;-0.0860596
3.235;-0.0857544
3.236;-0.0854492
3.237;-0.0857544
3.238;-0.0866699
3.239;-0.0881958
3.24;-0.090332
3.241;-0.0927734
3.242;-0.0958252
3.243;-0.098877
3.244;-0.102539
3.245;-0.105896
3.246;-0.109558
3.247;-0.112915
3.248;-0.115967
3.249;-0.118103
3.25;-0.119629
3.251;-0.119934
3.252;-0.119629
3.253;-0.118103
3.254;-0.115662
3.255;-0.111694
3.256;-0.106201
3.257;-0.0994873
3.258;-0.0906372
3.259;-0.0799561
3.26;-0.0671387
3.261;-0.0524902
3.262;-0.0357056
3.263;-0.0167847
3.264;0.00396729
3.265;0.0271606
3.266;0.0521851
3.267;0.0790405
3.268;0.108337
3.269;0.13916
3.27;0.171814
3.271;0.206299
3.272;0.24292
3.273;0.280762
3.274;0.320129
3.275;0.360107
3.276;0.39917
3.277;0.436707
3.278;0.471191
3.279;0.502625
3.28;0.531006
3.281;0.556641
3.282;0.579224
3.283;0.59967
3.284;0.617065
3.285;0.631409
3.286;0.641174
3.287;0.645752
3.288;0.643921
3.289;0.635071
3.29;0.619812
3.291;0.597229
3.292;0.568542
3.293;0.533752
3.294;0.493774
3.295;0.449524
3.296;0.401611
3.297;0.350952
3.298;0.298157
3.299;0.243835
3.3;0.188904
3.301;0.133972
3.302;0.0802612
3.303;0.0289917
3.304;-0.0195312
3.305;-0.0640869
3.306;-0.10437
3.307;-0.139771
3.308;-0.169373
3.309;-0.193787
3.31;-0.212402
3.311;-0.224915
3.312;-0.232239
3.313;-0.23407
3.314;-0.231323
3.315;-0.223999
3.316;-0.213013
3.317;-0.198975
3.318;-0.183105
3.319;-0.166016
3.32;-0.14801
3.321;-0.13031
3.322;-0.11322
3.323;-0.0970459
3.324;-0.0823975
3.325;-0.0692749
3.326;-0.0585938
3.327;-0.0500488
3.328;-0.0439453
3.329;-0.0402832
3.33;-0.0384521
3.331;-0.0390625
3.332;-0.0411987
3.333;-0.0445557
3.334;-0.0488281
3.335;-0.0531006
3.336;-0.057373
3.337;-0.0613403
3.338;-0.0650024
3.339;-0.0680542
3.34;-0.0704956
3.341;-0.0723267
3.342;-0.0735474
3.343;-0.0741577
3.344;-0.0741577
3.345;-0.0735474
3.346;-0.0726318
3.347;-0.0714111
3.348;-0.0698853
3.349;-0.0683594
3.35;-0.0665283
3.351;-0.0646973
3.352;-0.0628662
3.353;-0.0613403
3.354;-0.0601196
3.355;-0.0592041
3.356;-0.0582886
3.357;-0.0576782
3.358;-0.0567627
3.359;-0.0558472
3.36;-0.0549316
3.361;-0.0540161
3.362;-0.0531006
3.363;-0.0531006
3.364;-0.0534058
3.365;-0.0546265
3.366;-0.0561523
3.367;-0.0579834
3.368;-0.0598145
3.369;-0.0616455
3.37;-0.0631714
3.371;-0.0643921
3.372;-0.0653076
3.373;-0.0656128
3.374;-0.0653076
3.375;-0.0650024
3.376;-0.0646973
3.377;-0.0640869
3.378;-0.0640869
3.379;-0.0637817
3.38;-0.0637817
3.381;-0.0637817
3.382;-0.0631714
3.383;-0.0622559
3.384;-0.0610352
3.385;-0.0595093
3.386;-0.0579834
3.387;-0.0561523
3.388;-0.0540161
3.389;-0.0515747
3.39;-0.0488281
3.391;-0.0457764
3.392;-0.0430298
3.393;-0.0405884
3.394;-0.0378418
3.395;-0.0357056
3.396;-0.0335693
3.397;-0.0317383
3.398;-0.0296021
3.399;-0.027771
3.4;-0.0262451
3.401;-0.0247192
3.402;-0.0231934
3.403;-0.0222778
3.404;-0.0216675
3.405;-0.0213623
3.406;-0.0216675
3.407;-0.0222778
3.408;-0.0228882
3.409;-0.0234985
3.41;-0.0247192
3.411;-0.0256348
3.412;-0.0268555
3.413;-0.0280762
3.414;-0.0292969
3.415;-0.0302124
3.416;-0.0311279
3.417;-0.0317383
3.418;-0.0320435
3.419;-0.0320435
3.42;-0.0314331
3.421;-0.0302124
3.422;-0.0286865
3.423;-0.0268555
3.424;-0.0244141
3.425;-0.0213623
3.426;-0.0180054
3.427;-0.0146484
3.428;-0.0109863
3.429;-0.00762939
3.43;-0.00396729
3.431;-0.000610352
3.432;0.00244141
3.433;0.00549316
3.434;0.00823975
3.435;0.0106812
3.436;0.0131226
3.437;0.0152588
3.438;0.0170898
3.439;0.0186157
3.44;0.0198364
3.441;0.0204468
3.442;0.020752
3.443;0.0204468
3.444;0.0198364
3.445;0.0189209
3.446;0.0180054
3.447;0.0170898
3.448;0.0164795
3.449;0.0164795
3.45;0.0167847
3.451;0.0177002
3.452;0.0189209
3.453;0.0204468
3.454;0.0219727
3.455;0.0238037
3.456;0.0259399
3.457;0.027771
3.458;0.0296021
3.459;0.0317383
3.46;0.0338745
3.461;0.0363159
3.462;0.0387573
3.463;0.0415039
3.464;0.0445557
3.465;0.0479126
3.466;0.0512695
3.467;0.0546265
3.468;0.0582886
3.469;0.0619507
3.47;0.065918
3.471;0.0692749
3.472;0.0726318
3.473;0.0756836
3.474;0.0784302
3.475;0.0808716
3.476;0.0830078
3.477;0.085144
3.478;0.0872803
3.479;0.0891113
3.48;0.0909424
3.481;0.0927734
3.482;0.0946045
3.483;0.0961304
3.484;0.0982666
3.485;0.100098
3.486;0.101929
3.487;0.10376
3.488;0.104675
3.489;0.105591
3.49;0.105896
3.491;0.106201
3.492;0.106812
3.493;0.107422
3.494;0.108337
3.495;0.109558
3.496;0.111084
3.497;0.112915
3.498;0.114746
3.499;0.116577
3.5;0.118713
3.501;0.121155
3.502;0.123596
3.503;0.126038
3.504;0.128784
3.505;0.131226
3.506;0.133362
3.507;0.135498
3.508;0.137329
3.509;0.13916
3.51;0.140686
3.511;0.142212
3.512;0.143127
3.513;0.144043
3.514;0.144653
3.515;0.145569
3.516;0.14679
3.517;0.147705
3.518;0.148315
3.519;0.148621
3.52;0.148621
3.521;0.148621
3.522;0.148315
3.523;0.148315
3.524;0.14801
3.525;0.148315
3.526;0.148315
3.527;0.148315
3.528;0.148315
3.529;0.148315
3.53;0.148621
3.531;0.148621
3.532;0.148926
3.533;0.148621
3.534;0.14801
3.535;0.14679
3.536;0.144958
3.537;0.142517
3.538;0.139465
3.539;0.135803
3.54;0.131531
3.541;0.126953
3.542;0.12146
3.543;0.115662
3.544;0.109558
3.545;0.103455
3.546;0.0967407
3.547;0.0900269
3.548;0.0830078
3.549;0.0756836
3.55;0.0683594
3.551;0.0610352
3.552;0.0537109
3.553;0.0460815
3.554;0.0387573
3.555;0.0317383
3.556;0.0247192
3.557;0.0177002
3.558;0.0109863
3.559;0.00488281
3.56;-0.0012207
3.561;-0.00701904
3.562;-0.012207
3.563;-0.017395
3.564;-0.0222778
3.565;-0.0268555
3.566;-0.0317383
3.567;-0.0363159
3.568;-0.0411987
3.569;-0.0457764
3.57;-0.0506592
3.571;-0.0558472
3.572;-0.0613403
3.573;-0.0668335
3.574;-0.0723267
3.575;-0.0778198
3.576;-0.0830078
3.577;-0.0881958
3.578;-0.0927734
3.579;-0.0973511
3.58;-0.101624
3.581;-0.105896
3.582;-0.110168
3.583;-0.114136
3.584;-0.117798
3.585;-0.121765
3.586;-0.125427
3.587;-0.129395
3.588;-0.133057
3.589;-0.136719
3.59;-0.140076
3.591;-0.143127
3.592;-0.145874
3.593;-0.14801
3.594;-0.149536
3.595;-0.151062
3.596;-0.152588
3.597;-0.154114
3.598;-0.155334
3.599;-0.15686
3.6;-0.158081
3.601;-0.158997
3.602;-0.159912
3.603;-0.160828
3.604;-0.161438
3.605;-0.162354
3.606;-0.163269
3.607;-0.164185
3.608;-0.164795
3.609;-0.165405
3.61;-0.165405
3.611;-0.165405
3.612;-0.1651
3.613;-0.164795
3.614;-0.164185
3.615;-0.163879
3.616;-0.163879
3.617;-0.164185
3.618;-0.16449
3.619;-0.1651
3.62;-0.165405
3.621;-0.16571
3.622;-0.16571
3.623;-0.165405
3.624;-0.165405
3.625;-0.165405
3.626;-0.165405
3.627;-0.16571
3.628;-0.16571
3.629;-0.166016
3.63;-0.166016
3.631;-0.166016
3.632;-0.166016
3.633;-0.165405
3.634;-0.164795
3.635;-0.163879
3.636;-0.162659
3.637;-0.161743
3.638;-0.160828
3.639;-0.160217
3.64;-0.160217
3.641;-0.160828
3.642;-0.161438
3.643;-0.162048
3.644;-0.162048
3.645;-0.161743
3.646;-0.160828
3.647;-0.159912
3.648;-0.158691
3.649;-0.157776
3.65;-0.157471
3.651;-0.157776
3.652;-0.158691
3.653;-0.159912
3.654;-0.161133
3.655;-0.162659
3.656;-0.164185
3.657;-0.165405
3.658;-0.166016
3.659;-0.166626
3.66;-0.166931
3.661;-0.166931
3.662;-0.166321
3.663;-0.165405
3.664;-0.16449
3.665;-0.163574
3.666;-0.162354
3.667;-0.161438
3.668;-0.160522
3.669;-0.159607
3.67;-0.158997
3.671;-0.158386
3.672;-0.157776
3.673;-0.15686
3.674;-0.155945
3.675;-0.154724
3.676;-0.153809
3.677;-0.152588
3.678;-0.151367
3.679;-0.150452
3.68;-0.149536
3.681;-0.149231
3.682;-0.149231
3.683;-0.149536
3.684;-0.150452
3.685;-0.151367
3.686;-0.152283
3.687;-0.152893
3.688;-0.153198
3.689;-0.152893
3.69;-0.151978
3.691;-0.150757
3.692;-0.149231
3.693;-0.1474
3.694;-0.145264
3.695;-0.143127
3.696;-0.141296
3.697;-0.139465
3.698;-0.137939
3.699;-0.136108
3.7;-0.134277
3.701;-0.132446
3.702;-0.130615
3.703;-0.128174
3.704;-0.125732
3.705;-0.123291
3.706;-0.121155
3.707;-0.119324
3.708;-0.117798
3.709;-0.116577
3.71;-0.115967
3.711;-0.115356
3.712;-0.115051
3.713;-0.115051
3.714;-0.115051
3.715;-0.115356
3.716;-0.115356
3.717;-0.115356
3.718;-0.114746
3.719;-0.114136
3.72;-0.11322
3.721;-0.112
3.722;-0.111084
3.723;-0.109863
3.724;-0.108643
3.725;-0.107727
3.726;-0.106506
3.727;-0.10498
3.728;-0.103455
3.729;-0.101929
3.73;-0.100098
3.731;-0.0985718
3.732;-0.0970459
3.733;-0.0958252
3.734;-0.0949097
3.735;-0.0939941
3.736;-0.0930786
3.737;-0.0924683
3.738;-0.0918579
3.739;-0.0912476
3.74;-0.0912476
3.741;-0.0912476
3.742;-0.0918579
3.743;-0.0927734
3.744;-0.0939941
3.745;-0.09552
3.746;-0.0973511
3.747;-0.098877
3.748;-0.100403
3.749;-0.101318
3.75;-0.101929
3.751;-0.102234
3.752;-0.102539
3.753;-0.102844
3.754;-0.103149
3.755;-0.103149
3.756;-0.103149
3.757;-0.103149
3.758;-0.102539
3.759;-0.101929
3.76;-0.101013
3.761;-0.0997925
3.762;-0.0985718
3.763;-0.0970459
3.764;-0.0958252
3.765;-0.0946045
3.766;-0.0942993
3.767;-0.0942993
3.768;-0.0946045
3.769;-0.0952148
3.77;-0.0964355
3.771;-0.0979614
3.772;-0.0994873
3.773;-0.101318
3.774;-0.103149
3.775;-0.10498
3.776;-0.106506
3.777;-0.107727
3.778;-0.109253
3.779;-0.110168
3.78;-0.111389
3.781;-0.112
3.782;-0.112305
3.783;-0.112305
3.784;-0.112
3.785;-0.111694
3.786;-0.111084
3.787;-0.110474
3.788;-0.109558
3.789;-0.108337
3.79;-0.106812
3.791;-0.10498
3.792;-0.103455
3.793;-0.101624
3.794;-0.100403
3.795;-0.0994873
3.796;-0.0985718
3.797;-0.0982666
3.798;-0.0979614
3.799;-0.0979614
3.8;-0.0982666
3.801;-0.0985718
3.802;-0.0985718
3.803;-0.0985718
3.804;-0.0979614
3.805;-0.0973511
3.806;-0.0967407
3.807;-0.0958252
3.808;-0.09552
3.809;-0.0952148
3.81;-0.0946045
3.811;-0.0942993
3.812;-0.093689
3.813;-0.0930786
3.814;-0.0921631
3.815;-0.0915527
3.816;-0.0912476
3.817;-0.0909424
3.818;-0.0912476
3.819;-0.0915527
3.82;-0.0921631
3.821;-0.0930786
3.822;-0.0942993
3.823;-0.0958252
3.824;-0.0976562
3.825;-0.0994873
3.826;-0.101318
3.827;-0.10376
3.828;-0.105896
3.829;-0.108032
3.83;-0.110474
3.831;-0.11261
3.832;-0.114441
3.833;-0.116577
3.834;-0.118408
3.835;-0.120544
3.836;-0.122375
3.837;-0.123901
3.838;-0.125427
3.839;-0.126343
3.84;-0.126953
3.841;-0.127258
3.842;-0.126648
3.843;-0.125732
3.844;-0.124512
3.845;-0.123291
3.846;-0.121765
3.847;-0.119934
3.848;-0.118103
3.849;-0.115967
3.85;-0.114136
3.851;-0.112
3.852;-0.110168
3.853;-0.108337
3.854;-0.106506
3.855;-0.10437
3.856;-0.101929
3.857;-0.0994873
3.858;-0.0976562
3.859;-0.0958252
3.86;-0.0949097
3.861;-0.0946045
3.862;-0.0949097
3.863;-0.0952148
3.864;-0.09552
3.865;-0.0958252
3.866;-0.0958252
3.867;-0.09552
3.868;-0.0949097
3.869;-0.0946045
3.87;-0.0946045
3.871;-0.0949097
3.872;-0.09552
3.873;-0.0964355
3.874;-0.0976562
3.875;-0.0982666
3.876;-0.098877
3.877;-0.0991821
3.878;-0.0991821
3.879;-0.0991821
3.88;-0.0991821
3.881;-0.0991821
3.882;-0.0994873
3.883;-0.0997925
3.884;-0.100098
3.885;-0.100403
3.886;-0.100708
3.887;-0.101318
3.888;-0.101929
3.889;-0.102234
3.89;-0.102539
3.891;-0.102539
3.892;-0.101929
3.893;-0.101318
3.894;-0.100098
3.895;-0.098877
3.896;-0.0979614
3.897;-0.0970459
3.898;-0.0964355
3.899;-0.0961304
3.9;-0.0961304
3.901;-0.0961304
3.902;-0.0964355
3.903;-0.0961304
3.904;-0.0958252
3.905;-0.0949097
3.906;-0.0939941
3.907;-0.0927734
3.908;-0.0918579
3.909;-0.0909424
3.91;-0.090332
3.911;-0.0897217
3.912;-0.0888062
3.913;-0.0881958
3.914;-0.0875854
3.915;-0.0866699
3.916;-0.0857544
3.917;-0.0848389
3.918;-0.0839233
3.919;-0.0830078
3.92;-0.0820923
3.921;-0.0817871
3.922;-0.0817871
3.923;-0.0820923
3.924;-0.0827026
3.925;-0.0836182
3.926;-0.0848389
3.927;-0.0860596
3.928;-0.0872803
3.929;-0.088501
3.93;-0.0900269
3.931;-0.0915527
3.932;-0.0933838
3.933;-0.0952148
3.934;-0.0973511
3.935;-0.098877
3.936;-0.100403
3.937;-0.101624
3.938;-0.102539
3.939;-0.103455
3.94;-0.104065
3.941;-0.104065
3.942;-0.103455
3.943;-0.102844
3.944;-0.101929
3.945;-0.101013
3.946;-0.100403
3.947;-0.0997925
3.948;-0.0994873
3.949;-0.0994873
3.95;-0.0991821
3.951;-0.0985718
3.952;-0.0982666
3.953;-0.0973511
3.954;-0.0961304
3.955;-0.0949097
3.956;-0.0933838
3.957;-0.0924683
3.958;-0.0915527
3.959;-0.0909424
3.96;-0.0909424
3.961;-0.0915527
3.962;-0.0924683
3.963;-0.0933838
3.964;-0.0942993
3.965;-0.0949097
3.966;-0.09552
3.967;-0.09552
3.968;-0.0952148
3.969;-0.0949097
3.97;-0.0939941
3.971;-0.0930786
3.972;-0.0924683
3.973;-0.0921631
3.974;-0.0918579
3.975;-0.0918579
3.976;-0.0918579
3.977;-0.0918579
3.978;-0.0915527
3.979;-0.0912476
3.98;-0.0906372
3.981;-0.0897217
3.982;-0.088501
3.983;-0.0872803
3.984;-0.0857544
3.985;-0.0842285
3.986;-0.0830078
3.987;-0.0817871
3.988;-0.0808716
3.989;-0.0799561
3.99;-0.0793457
3.991;-0.0790405
3.992;-0.0784302
3.993;-0.078125
3.994;-0.0778198
3.995;-0.0775146
3.996;-0.0772095
3.997;-0.0769043
3.998;-0.0765991
3.999;-0.0769043
4;-0.0775146
4.001;-0.0784302
4.002;-0.0796509
4.003;-0.0805664
4.004;-0.0814819
4.005;-0.0817871
4.006;-0.0820923
4.007;-0.0820923
4.008;-0.0823975
4.009;-0.0827026
4.01;-0.083313
4.011;-0.0836182
4.012;-0.0842285
4.013;-0.0842285
4.014;-0.0836182
4.015;-0.0830078
4.016;-0.0820923
4.017;-0.0808716
4.018;-0.0796509
4.019;-0.078125
4.02;-0.0765991
4.021;-0.0750732
4.022;-0.0735474
4.023;-0.0720215
4.024;-0.0708008
4.025;-0.0701904
4.026;-0.0698853
4.027;-0.0704956
4.028;-0.071106
4.029;-0.0717163
4.03;-0.0723267
4.031;-0.0726318
4.032;-0.072937
4.033;-0.072937
4.034;-0.072937
4.035;-0.072937
4.036;-0.0726318
4.037;-0.0717163
4.038;-0.0708008
4.039;-0.0698853
4.04;-0.0686646
4.041;-0.067749
4.042;-0.0665283
4.043;-0.0653076
4.044;-0.0640869
4.045;-0.062561
4.046;-0.0610352
4.047;-0.0595093
4.048;-0.0579834
4.049;-0.0564575
4.05;-0.0552368
4.051;-0.0534058
4.052;-0.0521851
4.053;-0.0506592
4.054;-0.0497437
4.055;-0.0491333
4.056;-0.0491333
4.057;-0.0491333
4.058;-0.0491333
4.059;-0.0488281
4.06;-0.0485229
4.061;-0.0479126
4.062;-0.0469971
4.063;-0.0454712
4.064;-0.0439453
4.065;-0.0421143
4.066;-0.0402832
4.067;-0.0384521
4.068;-0.0363159
4.069;-0.0338745
4.07;-0.0314331
4.071;-0.0286865
4.072;-0.0259399
4.073;-0.0228882
4.074;-0.0195312
4.075;-0.0161743
4.076;-0.0125122
4.077;-0.00946045
4.078;-0.00610352
4.079;-0.00335693
4.08;-0.000915527
4.081;0.000915527
4.082;0.00244141
4.083;0.00335693
4.084;0.00396729
4.085;0.00427246
4.086;0.00427246
4.087;0.00396729
4.088;0.00366211
4.089;0.00274658
4.09;0.0012207
4.091;-0.000610352
4.092;-0.00305176
4.093;-0.00610352
4.094;-0.00976562
4.095;-0.0137329
4.096;-0.0177002
4.097;-0.0222778
4.098;-0.0265503
4.099;-0.0308228
4.1;-0.0344849
4.101;-0.038147
4.102;-0.0415039
4.103;-0.0445557
4.104;-0.0476074
4.105;-0.0506592
4.106;-0.0537109
4.107;-0.0567627
4.108;-0.0595093
4.109;-0.0622559
4.11;-0.0646973
4.111;-0.0674438
4.112;-0.0701904
4.113;-0.0732422
4.114;-0.0759888
4.115;-0.0787354
4.116;-0.0808716
4.117;-0.0827026
4.118;-0.0839233
4.119;-0.0854492
4.12;-0.0866699
4.121;-0.0878906
4.122;-0.0897217
4.123;-0.0912476
4.124;-0.0930786
4.125;-0.0946045
4.126;-0.0961304
4.127;-0.0973511
4.128;-0.0985718
4.129;-0.0994873
4.13;-0.100098
4.131;-0.100708
4.132;-0.101013
4.133;-0.101318
4.134;-0.101318
4.135;-0.101013
4.136;-0.100708
4.137;-0.100098
4.138;-0.0997925
4.139;-0.0991821
4.14;-0.098877
4.141;-0.0985718
4.142;-0.0982666
4.143;-0.0979614
4.144;-0.0976562
4.145;-0.0970459
4.146;-0.0967407
4.147;-0.0967407
4.148;-0.0964355
4.149;-0.0964355
4.15;-0.0964355
4.151;-0.0961304
4.152;-0.0958252
4.153;-0.0949097
4.154;-0.0933838
4.155;-0.0912476
4.156;-0.0875854
4.157;-0.083313
4.158;-0.0778198
4.159;-0.071106
4.16;-0.0628662
4.161;-0.0527954
4.162;-0.0408936
4.163;-0.0265503
4.164;-0.010376
4.165;0.00793457
4.166;0.0286865
4.167;0.0515747
4.168;0.0772095
4.169;0.105591
4.17;0.136719
4.171;0.170593
4.172;0.20752
4.173;0.246277
4.174;0.286255
4.175;0.327148
4.176;0.367126
4.177;0.405579
4.178;0.441589
4.179;0.474854
4.18;0.505371
4.181;0.533142
4.182;0.559082
4.183;0.582581
4.184;0.603333
4.185;0.621338
4.186;0.635071
4.187;0.643616
4.188;0.645447
4.189;0.640259
4.19;0.627441
4.191;0.607605
4.192;0.581055
4.193;0.548706
4.194;0.510864
4.195;0.46814
4.196;0.421753
4.197;0.372314
4.198;0.319824
4.199;0.265808
4.2;0.210876
4.201;0.15625
4.202;0.102539
4.203;0.0509644
4.204;0.00244141
4.205;-0.0430298
4.206;-0.0842285
4.207;-0.121155
4.208;-0.152893
4.209;-0.179138
4.21;-0.199585
4.211;-0.214539
4.212;-0.223694
4.213;-0.227661
4.214;-0.226746
4.215;-0.221252
4.216;-0.211792
4.217;-0.198975
4.218;-0.183411
4.219;-0.166016
4.22;-0.1474
4.221;-0.128479
4.222;-0.109558
4.223;-0.0921631
4.224;-0.0765991
4.225;-0.0628662
4.226;-0.0512695
4.227;-0.0418091
4.228;-0.0344849
4.229;-0.0292969
4.23;-0.0256348
4.231;-0.0238037
4.232;-0.0234985
4.233;-0.0244141
4.234;-0.0265503
4.235;-0.0292969
4.236;-0.0326538
4.237;-0.0360107
4.238;-0.0396729
4.239;-0.0430298
4.24;-0.0463867
4.241;-0.0491333
4.242;-0.0518799
4.243;-0.0540161
4.244;-0.0561523
4.245;-0.0576782
4.246;-0.0588989
4.247;-0.0598145
4.248;-0.0604248
4.249;-0.06073
4.25;-0.0610352
4.251;-0.0610352
4.252;-0.06073
4.253;-0.0601196
4.254;-0.0592041
4.255;-0.0582886
4.256;-0.0570679
4.257;-0.0558472
4.258;-0.0549316
4.259;-0.0537109
4.26;-0.0527954
4.261;-0.0521851
4.262;-0.0512695
4.263;-0.050354
4.264;-0.0494385
4.265;-0.0485229
4.266;-0.0476074
4.267;-0.0466919
4.268;-0.0463867
4.269;-0.0460815
4.27;-0.0460815
4.271;-0.0460815
4.272;-0.0463867
4.273;-0.0466919
4.274;-0.0463867
4.275;-0.0460815
4.276;-0.0454712
4.277;-0.0445557
4.278;-0.0436401
4.279;-0.0430298
4.28;-0.0424194
4.281;-0.0418091
4.282;-0.0411987
4.283;-0.0402832
4.284;-0.0387573
4.285;-0.0372314
4.286;-0.0357056
4.287;-0.0344849
4.288;-0.032959
4.289;-0.0314331
4.29;-0.0302124
4.291;-0.0292969
4.292;-0.0286865
4.293;-0.0280762
4.294;-0.0274658
4.295;-0.0274658
4.296;-0.0271606
4.297;-0.0271606
4.298;-0.0271606
4.299;-0.0268555
4.3;-0.0265503
4.301;-0.0262451
4.302;-0.0256348
4.303;-0.0253296
4.304;-0.0250244
4.305;-0.0247192
4.306;-0.0241089
4.307;-0.0231934
4.308;-0.022583
4.309;-0.0216675
4.31;-0.0204468
4.311;-0.0192261
4.312;-0.0177002
4.313;-0.0158691
4.314;-0.0140381
4.315;-0.012207
4.316;-0.010376
4.317;-0.0088501
4.318;-0.00793457
4.319;-0.00732422
4.32;-0.00701904
4.321;-0.00671387
4.322;-0.00640869
4.323;-0.00610352
4.324;-0.00549316
4.325;-0.00488281
4.326;-0.00457764
4.327;-0.00427246
4.328;-0.00396729
4.329;-0.00305176
4.33;-0.00183105
4.331;0
4.332;0.00244141
4.333;0.00518799
4.334;0.00823975
4.335;0.0112915
4.336;0.0146484
4.337;0.0183105
4.338;0.0222778
4.339;0.0259399
4.34;0.0292969
4.341;0.032959
4.342;0.0360107
4.343;0.0387573
4.344;0.0415039
4.345;0.0439453
4.346;0.0463867
4.347;0.0485229
4.348;0.050354
4.349;0.0524902
4.35;0.0540161
4.351;0.0552368
4.352;0.0561523
4.353;0.0567627
4.354;0.057373
4.355;0.0579834
4.356;0.0585938
4.357;0.0598145
4.358;0.06073
4.359;0.0622559
4.36;0.0640869
4.361;0.0665283
4.362;0.0692749
4.363;0.0723267
4.364;0.0753784
4.365;0.0787354
4.366;0.0817871
4.367;0.085144
4.368;0.0881958
4.369;0.0912476
4.37;0.0942993
4.371;0.0973511
4.372;0.100403
4.373;0.10376
4.374;0.107117
4.375;0.110168
4.376;0.113525
4.377;0.116577
4.378;0.119629
4.379;0.122681
4.38;0.126038
4.381;0.129395
4.382;0.132751
4.383;0.136108
4.384;0.139465
4.385;0.143127
4.386;0.14679
4.387;0.150452
4.388;0.154114
4.389;0.157776
4.39;0.161438
4.391;0.16449
4.392;0.167236
4.393;0.169373
4.394;0.171204
4.395;0.173035
4.396;0.174561
4.397;0.175781
4.398;0.177307
4.399;0.178528
4.4;0.180054
4.401;0.18219
4.402;0.184326
4.403;0.186768
4.404;0.189209
4.405;0.19165
4.406;0.194092
4.407;0.196228
4.408;0.198364
4.409;0.19989
4.41;0.201416
4.411;0.202942
4.412;0.204163
4.413;0.205078
4.414;0.205994
4.415;0.206604
4.416;0.207214
4.417;0.20752
4.418;0.207214
4.419;0.206909
4.42;0.205994
4.421;0.204468
4.422;0.202942
4.423;0.201416
4.424;0.19989
4.425;0.198669
4.426;0.197754
4.427;0.196838
4.428;0.196228
4.429;0.195618
4.43;0.195007
4.431;0.194397
4.432;0.193481
4.433;0.192566
4.434;0.19165
4.435;0.190735
4.436;0.189209
4.437;0.187378
4.438;0.185547
4.439;0.183105
4.44;0.180359
4.441;0.177002
4.442;0.17334
4.443;0.169067
4.444;0.164185
4.445;0.158997
4.446;0.153503
4.447;0.1474
4.448;0.141602
4.449;0.135498
4.45;0.129089
4.451;0.122681
4.452;0.116272
4.453;0.110168
4.454;0.10437
4.455;0.098877
4.456;0.0939941
4.457;0.0894165
4.458;0.0854492
4.459;0.0817871
4.46;0.0778198
4.461;0.0735474
4.462;0.0692749
4.463;0.0640869
4.464;0.0585938
4.465;0.0524902
4.466;0.0457764
4.467;0.0387573
4.468;0.0314331
4.469;0.0241089
4.47;0.0170898
4.471;0.0100708
4.472;0.00335693
4.473;-0.00366211
4.474;-0.0106812
4.475;-0.0177002
4.476;-0.0247192
4.477;-0.0317383
4.478;-0.0387573
4.479;-0.045166
4.48;-0.0512695
4.481;-0.0570679
4.482;-0.0622559
4.483;-0.0671387
4.484;-0.0717163
4.485;-0.0756836
4.486;-0.0787354
4.487;-0.0808716
4.488;-0.0823975
4.489;-0.0830078
4.49;-0.0839233
4.491;-0.0848389
4.492;-0.0857544
4.493;-0.0872803
4.494;-0.0891113
4.495;-0.0909424
4.496;-0.0927734
4.497;-0.0949097
4.498;-0.0967407
4.499;-0.0985718
4.5;-0.0997925
4.501;-0.101013
4.502;-0.101929
4.503;-0.102844
4.504;-0.104065
4.505;-0.105591
4.506;-0.106812
4.507;-0.108032
4.508;-0.108948
4.509;-0.109863
4.51;-0.110779
4.511;-0.111694
4.512;-0.112915
4.513;-0.113831
4.514;-0.115051
4.515;-0.115967
4.516;-0.117188
4.517;-0.118408
4.518;-0.119629
4.519;-0.120544
4.52;-0.12146
4.521;-0.121765
4.522;-0.121765
4.523;-0.12146
4.524;-0.121155
4.525;-0.120544
4.526;-0.119934
4.527;-0.119324
4.528;-0.118713
4.529;-0.118103
4.53;-0.117493
4.531;-0.116577
4.532;-0.115662
4.533;-0.114441
4.534;-0.11261
4.535;-0.110779
4.536;-0.108643
4.537;-0.106812
4.538;-0.10498
4.539;-0.103149
4.54;-0.101624
4.541;-0.100098
4.542;-0.0991821
4.543;-0.098877
4.544;-0.0991821
4.545;-0.100098
4.546;-0.101318
4.547;-0.102844
4.548;-0.10437
4.549;-0.105896
4.55;-0.107117
4.551;-0.108337
4.552;-0.109558
4.553;-0.110779
4.554;-0.111694
4.555;-0.11261
4.556;-0.11322
4.557;-0.11322
4.558;-0.112915
4.559;-0.112305
4.56;-0.111084
4.561;-0.109558
4.562;-0.107727
4.563;-0.105896
4.564;-0.10376
4.565;-0.101318
4.566;-0.0985718
4.567;-0.0961304
4.568;-0.0933838
4.569;-0.0912476
4.57;-0.0891113
4.571;-0.0878906
4.572;-0.0866699
4.573;-0.0860596
4.574;-0.0854492
4.575;-0.0854492
4.576;-0.0854492
4.577;-0.0860596
4.578;-0.0866699
4.579;-0.0875854
4.58;-0.088501
4.581;-0.0897217
4.582;-0.0912476
4.583;-0.0930786
4.584;-0.0949097
4.585;-0.0970459
4.586;-0.098877
4.587;-0.100098
4.588;-0.101013
4.589;-0.101318
4.59;-0.101624
4.591;-0.101318
4.592;-0.101013
4.593;-0.100098
4.594;-0.0994873
4.595;-0.0982666
4.596;-0.0970459
4.597;-0.0958252
4.598;-0.0939941
4.599;-0.0921631
4.6;-0.090332
4.601;-0.088501
4.602;-0.0872803
4.603;-0.0860596
4.604;-0.0848389
4.605;-0.0836182
4.606;-0.0823975
4.607;-0.0811768
4.608;-0.0796509
4.609;-0.078125
4.61;-0.0769043
4.611;-0.0756836
4.612;-0.0744629
4.613;-0.0732422
4.614;-0.0723267
4.615;-0.0714111
4.616;-0.0708008
4.617;-0.0701904
4.618;-0.0692749
4.619;-0.0686646
4.62;-0.0680542
4.621;-0.067749
4.622;-0.0671387
4.623;-0.0662231
4.624;-0.0656128
4.625;-0.0646973
4.626;-0.0643921
4.627;-0.0637817
4.628;-0.0634766
4.629;-0.0628662
4.63;-0.062561
4.631;-0.0619507
4.632;-0.0616455
4.633;-0.0613403
4.634;-0.0610352
4.635;-0.06073
4.636;-0.06073
4.637;-0.0604248
4.638;-0.0601196
4.639;-0.0601196
4.64;-0.0598145
4.641;-0.0595093
4.642;-0.0592041
4.643;-0.0585938
4.644;-0.0576782
4.645;-0.0567627
4.646;-0.055542
4.647;-0.0540161
4.648;-0.0521851
4.649;-0.050354
4.65;-0.0485229
4.651;-0.0469971
4.652;-0.0457764
4.653;-0.0445557
4.654;-0.0436401
4.655;-0.0427246
4.656;-0.0424194
4.657;-0.0424194
4.658;-0.0424194
4.659;-0.0424194
4.66;-0.0424194
4.661;-0.0424194
4.662;-0.0424194
4.663;-0.0430298
4.664;-0.0436401
4.665;-0.0445557
4.666;-0.0457764
4.667;-0.0466919
4.668;-0.0479126
4.669;-0.0488281
4.67;-0.0497437
4.671;-0.0506592
4.672;-0.0512695
4.673;-0.0518799
4.674;-0.0521851
4.675;-0.0524902
4.676;-0.0521851
4.677;-0.0515747
4.678;-0.0509644
4.679;-0.0500488
4.68;-0.0488281
4.681;-0.0473022
4.682;-0.0457764
4.683;-0.0442505
4.684;-0.0424194
4.685;-0.0408936
4.686;-0.0393677
4.687;-0.038147
4.688;-0.0369263
4.689;-0.0357056
4.69;-0.0344849
4.691;-0.0332642
4.692;-0.0317383
4.693;-0.0305176
4.694;-0.0292969
4.695;-0.0283813
4.696;-0.027771
4.697;-0.027771
4.698;-0.027771
4.699;-0.0280762
4.7;-0.0286865
4.701;-0.0296021
4.702;-0.0311279
4.703;-0.0326538
4.704;-0.03479
4.705;-0.0366211
4.706;-0.0384521
4.707;-0.0402832
4.708;-0.0415039
4.709;-0.0427246
4.71;-0.043335
4.711;-0.0439453
4.712;-0.0442505
4.713;-0.0448608
4.714;-0.045166
4.715;-0.0457764
4.716;-0.0463867
4.717;-0.0466919
4.718;-0.0466919
4.719;-0.0460815
4.72;-0.0448608
4.721;-0.043335
4.722;-0.0418091
4.723;-0.039978
4.724;-0.038147
4.725;-0.0366211
4.726;-0.0350952
4.727;-0.0341797
4.728;-0.0332642
4.729;-0.032959
4.73;-0.0326538
4.731;-0.032959
4.732;-0.0332642
4.733;-0.0341797
4.734;-0.0350952
4.735;-0.0360107
4.736;-0.0366211
4.737;-0.0375366
4.738;-0.0387573
4.739;-0.039978
4.74;-0.0415039
4.741;-0.043335
4.742;-0.045166
4.743;-0.0469971
4.744;-0.0485229
4.745;-0.0497437
4.746;-0.0509644
4.747;-0.0515747
4.748;-0.0521851
4.749;-0.0524902
4.75;-0.0524902
4.751;-0.0524902
4.752;-0.0521851
4.753;-0.0518799
4.754;-0.0512695
4.755;-0.0500488
4.756;-0.0485229
4.757;-0.0469971
4.758;-0.0454712
4.759;-0.0439453
4.76;-0.0424194
4.761;-0.0411987
4.762;-0.039978
4.763;-0.0393677
4.764;-0.0384521
4.765;-0.0378418
4.766;-0.0372314
4.767;-0.0369263
4.768;-0.0366211
4.769;-0.0369263
4.77;-0.0375366
4.771;-0.0384521
4.772;-0.0396729
4.773;-0.0411987
4.774;-0.0424194
4.775;-0.0436401
4.776;-0.0445557
4.777;-0.045166
4.778;-0.0457764
4.779;-0.0460815
4.78;-0.0466919
4.781;-0.0476074
4.782;-0.0485229
4.783;-0.0491333
4.784;-0.0500488
4.785;-0.0506592
4.786;-0.0509644
4.787;-0.0509644
4.788;-0.050354
4.789;-0.0497437
4.79;-0.0485229
4.791;-0.0476074
4.792;-0.0466919
4.793;-0.0460815
4.794;-0.0457764
4.795;-0.0454712
4.796;-0.0454712
4.797;-0.045166
4.798;-0.045166
4.799;-0.0448608
4.8;-0.0448608
4.801;-0.0448608
4.802;-0.0445557
4.803;-0.0439453
4.804;-0.043335
4.805;-0.0430298
4.806;-0.0424194
4.807;-0.0418091
4.808;-0.0411987
4.809;-0.0408936
4.81;-0.0405884
4.811;-0.0402832
4.812;-0.039978
4.813;-0.0393677
4.814;-0.0384521
4.815;-0.0375366
4.816;-0.0363159
4.817;-0.0354004
4.818;-0.0344849
4.819;-0.0341797
4.82;-0.0338745
4.821;-0.0341797
4.822;-0.0341797
4.823;-0.0344849
4.824;-0.0341797
4.825;-0.0338745
4.826;-0.0338745
4.827;-0.0335693
4.828;-0.0335693
4.829;-0.0335693
4.83;-0.0338745
4.831;-0.0341797
4.832;-0.0344849
4.833;-0.0350952
4.834;-0.0363159
4.835;-0.0372314
4.836;-0.038147
4.837;-0.0390625
4.838;-0.039978
4.839;-0.0408936
4.84;-0.0415039
4.841;-0.0421143
4.842;-0.0424194
4.843;-0.0427246
4.844;-0.0430298
4.845;-0.043335
4.846;-0.043335
4.847;-0.0430298
4.848;-0.0427246
4.849;-0.0421143
4.85;-0.0415039
4.851;-0.0402832
4.852;-0.0390625
4.853;-0.0378418
4.854;-0.0366211
4.855;-0.0350952
4.856;-0.0335693
4.857;-0.0320435
4.858;-0.0302124
4.859;-0.0283813
4.86;-0.0262451
4.861;-0.0244141
4.862;-0.0231934
4.863;-0.0222778
4.864;-0.0219727
4.865;-0.0219727
4.866;-0.0228882
4.867;-0.0241089
4.868;-0.0256348
4.869;-0.0271606
4.87;-0.0292969
4.871;-0.0314331
4.872;-0.0335693
4.873;-0.0360107
4.874;-0.0384521
4.875;-0.0411987
4.876;-0.0439453
4.877;-0.0463867
4.878;-0.0488281
4.879;-0.0512695
4.88;-0.0531006
4.881;-0.0549316
4.882;-0.0567627
4.883;-0.0579834
4.884;-0.0585938
4.885;-0.0585938
4.886;-0.0579834
4.887;-0.0567627
4.888;-0.0552368
4.889;-0.0531006
4.89;-0.0506592
4.891;-0.0482178
4.892;-0.0457764
4.893;-0.043335
4.894;-0.0405884
4.895;-0.038147
4.896;-0.0357056
4.897;-0.0335693
4.898;-0.0317383
4.899;-0.0302124
4.9;-0.0292969
4.901;-0.0289917
4.902;-0.0289917
4.903;-0.0292969
4.904;-0.0296021
4.905;-0.0302124
4.906;-0.0311279
4.907;-0.0317383
4.908;-0.0326538
4.909;-0.0338745
4.91;-0.0350952
4.911;-0.0366211
4.912;-0.038147
4.913;-0.0396729
4.914;-0.0408936
4.915;-0.0411987
4.916;-0.0411987
4.917;-0.0405884
4.918;-0.0393677
4.919;-0.038147
4.92;-0.0366211
4.921;-0.0350952
4.922;-0.0335693
4.923;-0.0326538
4.924;-0.0317383
4.925;-0.0308228
4.926;-0.0296021
4.927;-0.0283813
4.928;-0.0274658
4.929;-0.0265503
4.93;-0.0259399
4.931;-0.0256348
4.932;-0.0253296
4.933;-0.0250244
4.934;-0.0253296
4.935;-0.0259399
4.936;-0.0265503
4.937;-0.0271606
4.938;-0.027771
4.939;-0.0286865
4.94;-0.0296021
4.941;-0.0305176
4.942;-0.0317383
4.943;-0.0326538
4.944;-0.0335693
4.945;-0.0338745
4.946;-0.0338745
4.947;-0.032959
4.948;-0.0320435
4.949;-0.0305176
4.95;-0.0289917
4.951;-0.0274658
4.952;-0.0259399
4.953;-0.0247192
4.954;-0.0234985
4.955;-0.0222778
4.956;-0.020752
4.957;-0.0189209
4.958;-0.0167847
4.959;-0.0143433
4.96;-0.0119019
4.961;-0.00976562
4.962;-0.00793457
4.963;-0.00640869
4.964;-0.00488281
4.965;-0.00366211
4.966;-0.00244141
4.967;-0.00183105
4.968;-0.00152588
4.969;-0.0012207
4.97;-0.000915527
4.971;-0.000915527
4.972;-0.000915527
4.973;-0.0012207
4.974;-0.00152588
4.975;-0.00183105
4.976;-0.00244141
4.977;-0.00335693
4.978;-0.00396729
4.979;-0.00427246
4.98;-0.00396729
4.981;-0.00335693
4.982;-0.00183105
4.983;0.000305176
4.984;0.00335693
4.985;0.00671387
4.986;0.0106812
4.987;0.0149536
4.988;0.0195312
4.989;0.0234985
4.99;0.027771
4.991;0.0317383
4.992;0.0360107
4.993;0.039978
4.994;0.0439453
4.995;0.0479126
4.996;0.0512695
4.997;0.0543213
4.998;0.0564575
4.999;0.0579834
5;0.0585938
5.001;0.0585938
5.002;0.0576782
5.003;0.0558472
5.004;0.0534058
5.005;0.050354
5.006;0.0466919
5.007;0.0424194
5.008;0.0375366
5.009;0.0323486
5.01;0.0271606
5.011;0.0219727
5.012;0.0170898
5.013;0.012207
5.014;0.00762939
5.015;0.00305176
5.016;-0.00152588
5.017;-0.00610352
5.018;-0.0106812
5.019;-0.015564
5.02;-0.0201416
5.021;-0.0250244
5.022;-0.0296021
5.023;-0.0335693
5.024;-0.0369263
5.025;-0.039978
5.026;-0.0424194
5.027;-0.0445557
5.028;-0.0466919
5.029;-0.0485229
5.03;-0.0506592
5.031;-0.0527954
5.032;-0.0546265
5.033;-0.0561523
5.034;-0.057373
5.035;-0.0582886
5.036;-0.0588989
5.037;-0.0595093
5.038;-0.0598145
5.039;-0.0601196
5.04;-0.0598145
5.041;-0.0592041
5.042;-0.0588989
5.043;-0.0582886
5.044;-0.0579834
5.045;-0.0576782
5.046;-0.057373
5.047;-0.057373
5.048;-0.0576782
5.049;-0.0579834
5.05;-0.0585938
5.051;-0.0592041
5.052;-0.0601196
5.053;-0.0610352
5.054;-0.0619507
5.055;-0.0628662
5.056;-0.0640869
5.057;-0.0653076
5.058;-0.0668335
5.059;-0.0683594
5.06;-0.0695801
5.061;-0.0704956
5.062;-0.0714111
5.063;-0.0717163
5.064;-0.0714111
5.065;-0.0701904
5.066;-0.0683594
5.067;-0.0653076
5.068;-0.0610352
5.069;-0.055542
5.07;-0.0485229
5.071;-0.0402832
5.072;-0.0302124
5.073;-0.0189209
5.074;-0.00579834
5.075;0.00946045
5.076;0.0268555
5.077;0.0466919
5.078;0.0686646
5.079;0.0933838
5.08;0.12085
5.081;0.151062
5.082;0.183716
5.083;0.219116
5.084;0.256958
5.085;0.296021
5.086;0.335999
5.087;0.375977
5.088;0.414429
5.089;0.451355
5.09;0.485535
5.091;0.517578
5.092;0.546875
5.093;0.574036
5.094;0.59845
5.095;0.620117
5.096;0.639038
5.097;0.653992
5.098;0.664062
5.099;0.66803
5.1;0.665588
5.101;0.655518
5.102;0.638428
5.103;0.614319
5.104;0.583801
5.105;0.547791
5.106;0.506592
5.107;0.461426
5.108;0.413208
5.109;0.362244
5.11;0.309143
5.111;0.254517
5.112;0.199585
5.113;0.144958
5.114;0.0918579
5.115;0.0405884
5.116;-0.00732422
5.117;-0.0518799
5.118;-0.0915527
5.119;-0.126343
5.12;-0.15564
5.121;-0.179138
5.122;-0.196533
5.123;-0.20813
5.124;-0.214233
5.125;-0.214844
5.126;-0.210571
5.127;-0.202026
5.128;-0.189819
5.129;-0.174866
5.13;-0.157776
5.131;-0.138855
5.132;-0.119324
5.133;-0.0994873
5.134;-0.0805664
5.135;-0.0628662
5.136;-0.0473022
5.137;-0.0338745
5.138;-0.0231934
5.139;-0.0149536
5.14;-0.00946045
5.141;-0.00640869
5.142;-0.00518799
5.143;-0.00610352
5.144;-0.00854492
5.145;-0.012207
5.146;-0.0167847
5.147;-0.0219727
5.148;-0.027771
5.149;-0.0332642
5.15;-0.0387573
5.151;-0.0436401
5.152;-0.0482178
5.153;-0.0518799
5.154;-0.0546265
5.155;-0.0570679
5.156;-0.0582886
5.157;-0.0588989
5.158;-0.0592041
5.159;-0.0585938
5.16;-0.0576782
5.161;-0.0561523
5.162;-0.0543213
5.163;-0.0521851
5.164;-0.0500488
5.165;-0.0476074
5.166;-0.045166
5.167;-0.0427246
5.168;-0.0408936
5.169;-0.0387573
5.17;-0.0369263
5.171;-0.0350952
5.172;-0.0332642
5.173;-0.0314331
5.174;-0.0299072
5.175;-0.0289917
5.176;-0.0280762
5.177;-0.027771
5.178;-0.0280762
5.179;-0.0286865
5.18;-0.0302124
5.181;-0.0317383
5.182;-0.0338745
5.183;-0.0363159
5.184;-0.0390625
5.185;-0.0415039
5.186;-0.0439453
5.187;-0.0463867
5.188;-0.0482178
5.189;-0.0500488
5.19;-0.0512695
5.191;-0.0524902
5.192;-0.0531006
5.193;-0.0534058
5.194;-0.0534058
5.195;-0.0527954
5.196;-0.0518799
5.197;-0.050354
5.198;-0.0485229
5.199;-0.0454712
5.2;-0.0421143
5.201;-0.0384521
5.202;-0.0344849
5.203;-0.0302124
5.204;-0.0262451
5.205;-0.0222778
5.206;-0.0186157
5.207;-0.0152588
5.208;-0.012207
5.209;-0.00976562
5.21;-0.00762939
5.211;-0.00610352
5.212;-0.00549316
5.213;-0.00518799
5.214;-0.00579834
5.215;-0.00640869
5.216;-0.00732422
5.217;-0.0088501
5.218;-0.0100708
5.219;-0.0112915
5.22;-0.012207
5.221;-0.0125122
5.222;-0.0128174
5.223;-0.0125122
5.224;-0.012207
5.225;-0.0115967
5.226;-0.0106812
5.227;-0.00946045
5.228;-0.00762939
5.229;-0.00579834
5.23;-0.00396729
5.231;-0.00152588
5.232;0.000915527
5.233;0.00366211
5.234;0.00671387
5.235;0.00976562
5.236;0.0131226
5.237;0.0167847
5.238;0.0198364
5.239;0.022583
5.24;0.0250244
5.241;0.0274658
5.242;0.0296021
5.243;0.0317383
5.244;0.0335693
5.245;0.0350952
5.246;0.0363159
5.247;0.0372314
5.248;0.038147
5.249;0.0390625
5.25;0.039978
5.251;0.0405884
5.252;0.0411987
5.253;0.0421143
5.254;0.043335
5.255;0.0445557
5.256;0.0463867
5.257;0.0482178
5.258;0.0500488
5.259;0.0515747
5.26;0.0531006
5.261;0.0543213
5.262;0.055542
5.263;0.0564575
5.264;0.0570679
5.265;0.0579834
5.266;0.0585938
5.267;0.0595093
5.268;0.0604248
5.269;0.0616455
5.27;0.0628662
5.271;0.0643921
5.272;0.0656128
5.273;0.0665283
5.274;0.0674438
5.275;0.0683594
5.276;0.0689697
5.277;0.0701904
5.278;0.0717163
5.279;0.0735474
5.28;0.0756836
5.281;0.078125
5.282;0.0805664
5.283;0.0830078
5.284;0.0854492
5.285;0.0881958
5.286;0.0909424
5.287;0.093689
5.288;0.0961304
5.289;0.098877
5.29;0.101624
5.291;0.10437
5.292;0.107422
5.293;0.110474
5.294;0.113831
5.295;0.116882
5.296;0.119934
5.297;0.122681
5.298;0.125732
5.299;0.128479
5.3;0.131226
5.301;0.133972
5.302;0.137024
5.303;0.140076
5.304;0.143127
5.305;0.145874
5.306;0.148926
5.307;0.151978
5.308;0.154724
5.309;0.157776
5.31;0.160522
5.311;0.163269
5.312;0.16571
5.313;0.168152
5.314;0.170288
5.315;0.172424
5.316;0.174255
5.317;0.175781
5.318;0.177002
5.319;0.177917
5.32;0.178833
5.321;0.179138
5.322;0.179749
5.323;0.180054
5.324;0.180054
5.325;0.180359
5.326;0.180054
5.327;0.179749
5.328;0.179443
5.329;0.178833
5.33;0.178528
5.331;0.178223
5.332;0.177917
5.333;0.177612
5.334;0.177307
5.335;0.177307
5.336;0.177002
5.337;0.177002
5.338;0.176697
5.339;0.176086
5.34;0.175171
5.341;0.174255
5.342;0.173035
5.343;0.171814
5.344;0.169983
5.345;0.168152
5.346;0.166016
5.347;0.163269
5.348;0.160522
5.349;0.157471
5.35;0.153809
5.351;0.149841
5.352;0.145874
5.353;0.141296
5.354;0.136719
5.355;0.131836
5.356;0.126648
5.357;0.121765
5.358;0.116882
5.359;0.112305
5.36;0.108032
5.361;0.103455
5.362;0.0991821
5.363;0.0946045
5.364;0.090332
5.365;0.0857544
5.366;0.0814819
5.367;0.0775146
5.368;0.0735474
5.369;0.0692749
5.37;0.0650024
5.371;0.0601196
5.372;0.0552368
5.373;0.0497437
5.374;0.0442505
5.375;0.0387573
5.376;0.032959
5.377;0.0271606
5.378;0.0210571
5.379;0.0143433
5.38;0.00762939
5.381;0.000305176
5.382;-0.00732422
5.383;-0.0149536
5.384;-0.0222778
5.385;-0.0296021
5.386;-0.0360107
5.387;-0.0421143
5.388;-0.0476074
5.389;-0.0531006
5.39;-0.0579834
5.391;-0.062561
5.392;-0.0671387
5.393;-0.0714111
5.394;-0.0753784
5.395;-0.0790405
5.396;-0.0823975
5.397;-0.0854492
5.398;-0.0881958
5.399;-0.0906372
5.4;-0.0927734
5.401;-0.0942993
5.402;-0.0961304
5.403;-0.0976562
5.404;-0.0991821
5.405;-0.100708
5.406;-0.102539
5.407;-0.104065
5.408;-0.105896
5.409;-0.107727
5.41;-0.109863
5.411;-0.111694
5.412;-0.113831
5.413;-0.115662
5.414;-0.117493
5.415;-0.119019
5.416;-0.120239
5.417;-0.12146
5.418;-0.122375
5.419;-0.122986
5.42;-0.123901
5.421;-0.124817
5.422;-0.126038
5.423;-0.127563
5.424;-0.128784
5.425;-0.13031
5.426;-0.131836
5.427;-0.133362
5.428;-0.134888
5.429;-0.136414
5.43;-0.137634
5.431;-0.13916
5.432;-0.140686
5.433;-0.142822
5.434;-0.145569
5.435;-0.148621
5.436;-0.151367
5.437;-0.154114
5.438;-0.15625
5.439;-0.158081
5.44;-0.159302
5.441;-0.160522
5.442;-0.162048
5.443;-0.163879
5.444;-0.165405
5.445;-0.166321
5.446;-0.166931
5.447;-0.166626
5.448;-0.166016
5.449;-0.1651
5.45;-0.163879
5.451;-0.162964
5.452;-0.162048
5.453;-0.161133
5.454;-0.160217
5.455;-0.158997
5.456;-0.157776
5.457;-0.15625
5.458;-0.154724
5.459;-0.153198
5.46;-0.151978
5.461;-0.151062
5.462;-0.150146
5.463;-0.149231
5.464;-0.148621
5.465;-0.148315
5.466;-0.148315
5.467;-0.14801
5.468;-0.14801
5.469;-0.148315
5.47;-0.148621
5.471;-0.148926
5.472;-0.148926
5.473;-0.148926
5.474;-0.148926
5.475;-0.148926
5.476;-0.148621
5.477;-0.148926
5.478;-0.149536
5.479;-0.150146
5.48;-0.151062
5.481;-0.151978
5.482;-0.153198
5.483;-0.154419
5.484;-0.155334
5.485;-0.155945
5.486;-0.15564
5.487;-0.154724
5.488;-0.153198
5.489;-0.151367
5.49;-0.149536
5.491;-0.147705
5.492;-0.145874
5.493;-0.144043
5.494;-0.142212
5.495;-0.140686
5.496;-0.13916
5.497;-0.137329
5.498;-0.135193
5.499;-0.133362
5.5;-0.131226
5.501;-0.129395
5.502;-0.127563
5.503;-0.126343
5.504;-0.125732
5.505;-0.125122
5.506;-0.125122
5.507;-0.125427
5.508;-0.126038
5.509;-0.126648
5.51;-0.127563
5.511;-0.128174
5.512;-0.129089
5.513;-0.1297
5.514;-0.130005
5.515;-0.13031
5.516;-0.130615
5.517;-0.13031
5.518;-0.1297
5.519;-0.129089
5.52;-0.128174
5.521;-0.127258
5.522;-0.125732
5.523;-0.123901
5.524;-0.121765
5.525;-0.119324
5.526;-0.117188
5.527;-0.115051
5.528;-0.112915
5.529;-0.111084
5.53;-0.109253
5.531;-0.107422
5.532;-0.105896
5.533;-0.10437
5.534;-0.103149
5.535;-0.102539
5.536;-0.101624
5.537;-0.101318
5.538;-0.101013
5.539;-0.100708
5.54;-0.100708
5.541;-0.100403
5.542;-0.100403
5.543;-0.100708
5.544;-0.100708
5.545;-0.101013
5.546;-0.101624
5.547;-0.102234
5.548;-0.102844
5.549;-0.10376
5.55;-0.10498
5.551;-0.106201
5.552;-0.107117
5.553;-0.108032
5.554;-0.108643
5.555;-0.108337
5.556;-0.107727
5.557;-0.106812
5.558;-0.105896
5.559;-0.104675
5.56;-0.10376
5.561;-0.102539
5.562;-0.101318
5.563;-0.100098
5.564;-0.0985718
5.565;-0.0964355
5.566;-0.0946045
5.567;-0.0924683
5.568;-0.090332
5.569;-0.088501
5.57;-0.0869751
5.571;-0.0857544
5.572;-0.0848389
5.573;-0.0845337
5.574;-0.0842285
5.575;-0.0845337
5.576;-0.085144
5.577;-0.0860596
5.578;-0.0875854
5.579;-0.0891113
5.58;-0.0906372
5.581;-0.0921631
5.582;-0.0939941
5.583;-0.0952148
5.584;-0.0964355
5.585;-0.0976562
5.586;-0.0985718
5.587;-0.0994873
5.588;-0.100708
5.589;-0.101624
5.59;-0.102539
5.591;-0.103149
5.592;-0.10376
5.593;-0.104065
5.594;-0.104065
5.595;-0.104065
5.596;-0.104065
5.597;-0.104065
5.598;-0.10437
5.599;-0.105286
5.6;-0.106201
5.601;-0.107422
5.602;-0.108643
5.603;-0.109863
5.604;-0.111389
5.605;-0.112915
5.606;-0.114441
5.607;-0.115662
5.608;-0.116577
5.609;-0.117493
5.61;-0.118408
5.611;-0.119324
5.612;-0.119934
5.613;-0.120544
5.614;-0.120544
5.615;-0.119934
5.616;-0.119019
5.617;-0.117798
5.618;-0.116272
5.619;-0.114746
5.62;-0.11322
5.621;-0.112
5.622;-0.111084
5.623;-0.109863
5.624;-0.109253
5.625;-0.108948
5.626;-0.108948
5.627;-0.109863
5.628;-0.111084
5.629;-0.112915
5.63;-0.115356
5.631;-0.118103
5.632;-0.120544
5.633;-0.122986
5.634;-0.125122
5.635;-0.126953
5.636;-0.128479
5.637;-0.130005
5.638;-0.131226
5.639;-0.132141
5.64;-0.133057
5.641;-0.133362
5.642;-0.133362
5.643;-0.133057
5.644;-0.132141
5.645;-0.13092
5.646;-0.1297
5.647;-0.128479
5.648;-0.126953
5.649;-0.125427
5.65;-0.124207
5.651;-0.122986
5.652;-0.122375
5.653;-0.121765
5.654;-0.12146
5.655;-0.121765
5.656;-0.12207
5.657;-0.123291
5.658;-0.124817
5.659;-0.126648
5.66;-0.128784
5.661;-0.130615
5.662;-0.132141
5.663;-0.133667
5.664;-0.134583
5.665;-0.135498
5.666;-0.135803
5.667;-0.135498
5.668;-0.134583
5.669;-0.133362
5.67;-0.131531
5.671;-0.129089
5.672;-0.126953
5.673;-0.124512
5.674;-0.121765
5.675;-0.119324
5.676;-0.116882
5.677;-0.114441
5.678;-0.112305
5.679;-0.110474
5.68;-0.108948
5.681;-0.108032
5.682;-0.107117
5.683;-0.107117
5.684;-0.107422
5.685;-0.108337
5.686;-0.109863
5.687;-0.111389
5.688;-0.11322
5.689;-0.115051
5.69;-0.116577
5.691;-0.118713
5.692;-0.12085
5.693;-0.122986
5.694;-0.125427
5.695;-0.127563
5.696;-0.129395
5.697;-0.131226
5.698;-0.132751
5.699;-0.133972
5.7;-0.134888
5.701;-0.135498
5.702;-0.135803
5.703;-0.135803
5.704;-0.135498
5.705;-0.134583
5.706;-0.133972
5.707;-0.133362
5.708;-0.132446
5.709;-0.131836
5.71;-0.13092
5.711;-0.13031
5.712;-0.130005
5.713;-0.1297
5.714;-0.129395
5.715;-0.128784
5.716;-0.128174
5.717;-0.127258
5.718;-0.126343
5.719;-0.125732
5.72;-0.125427
5.721;-0.125122
5.722;-0.125122
5.723;-0.125427
5.724;-0.125732
5.725;-0.126648
5.726;-0.127563
5.727;-0.128784
5.728;-0.130005
5.729;-0.131836
5.73;-0.133362
5.731;-0.134583
5.732;-0.135193
5.733;-0.135498
5.734;-0.135803
5.735;-0.135498
5.736;-0.135193
5.737;-0.135193
5.738;-0.135193
5.739;-0.135498
5.74;-0.135498
5.741;-0.135498
5.742;-0.134888
5.743;-0.133667
5.744;-0.132141
5.745;-0.13031
5.746;-0.128174
5.747;-0.126038
5.748;-0.124207
5.749;-0.122986
5.75;-0.122986
5.751;-0.123901
5.752;-0.125427
5.753;-0.127563
5.754;-0.130005
5.755;-0.132446
5.756;-0.135193
5.757;-0.137329
5.758;-0.139465
5.759;-0.141602
5.76;-0.143127
5.761;-0.144348
5.762;-0.145569
5.763;-0.146484
5.764;-0.147095
5.765;-0.147705
5.766;-0.147705
5.767;-0.1474
5.768;-0.14679
5.769;-0.145569
5.77;-0.144043
5.771;-0.141907
5.772;-0.13916
5.773;-0.136414
5.774;-0.133362
5.775;-0.13031
5.776;-0.127563
5.777;-0.124817
5.778;-0.122375
5.779;-0.120239
5.78;-0.118408
5.781;-0.116882
5.782;-0.115662
5.783;-0.114746
5.784;-0.114441
5.785;-0.114136
5.786;-0.114136
5.787;-0.114136
5.788;-0.113831
5.789;-0.113525
5.79;-0.112915
5.791;-0.112305
5.792;-0.111084
5.793;-0.109863
5.794;-0.108337
5.795;-0.106812
5.796;-0.104675
5.797;-0.102539
5.798;-0.100098
5.799;-0.0979614
5.8;-0.0958252
5.801;-0.093689
5.802;-0.0915527
5.803;-0.0897217
5.804;-0.0872803
5.805;-0.0845337
5.806;-0.0817871
5.807;-0.0787354
5.808;-0.0756836
5.809;-0.0726318
5.81;-0.0692749
5.811;-0.0656128
5.812;-0.0619507
5.813;-0.0585938
5.814;-0.0552368
5.815;-0.0527954
5.816;-0.0506592
5.817;-0.0491333
5.818;-0.0476074
5.819;-0.0466919
5.82;-0.0460815
5.821;-0.0457764
5.822;-0.0460815
5.823;-0.0463867
5.824;-0.0476074
5.825;-0.0494385
5.826;-0.0521851
5.827;-0.055542
5.828;-0.0595093
5.829;-0.0643921
5.83;-0.0698853
5.831;-0.0753784
5.832;-0.0811768
5.833;-0.0863647
5.834;-0.0915527
5.835;-0.0964355
5.836;-0.101013
5.837;-0.105591
5.838;-0.109863
5.839;-0.114136
5.84;-0.118103
5.841;-0.12207
5.842;-0.125732
5.843;-0.128784
5.844;-0.131531
5.845;-0.133667
5.846;-0.135193
5.847;-0.135803
5.848;-0.135803
5.849;-0.135193
5.85;-0.133972
5.851;-0.133057
5.852;-0.132446
5.853;-0.132446
5.854;-0.133057
5.855;-0.134583
5.856;-0.136414
5.857;-0.13855
5.858;-0.141296
5.859;-0.144043
5.86;-0.14679
5.861;-0.149841
5.862;-0.152893
5.863;-0.155945
5.864;-0.159302
5.865;-0.162659
5.866;-0.16571
5.867;-0.168762
5.868;-0.171814
5.869;-0.174255
5.87;-0.177002
5.871;-0.179443
5.872;-0.18158
5.873;-0.183716
5.874;-0.185547
5.875;-0.187073
5.876;-0.188293
5.877;-0.188904
5.878;-0.189514
5.879;-0.189209
5.88;-0.188904
5.881;-0.187988
5.882;-0.186157
5.883;-0.184326
5.884;-0.18158
5.885;-0.178528
5.886;-0.175171
5.887;-0.170898
5.888;-0.166016
5.889;-0.159912
5.89;-0.152588
5.891;-0.144043
5.892;-0.133667
5.893;-0.121765
5.894;-0.108032
5.895;-0.0924683
5.896;-0.0750732
5.897;-0.0558472
5.898;-0.0341797
5.899;-0.010376
5.9;0.015564
5.901;0.0442505
5.902;0.0753784
5.903;0.108948
5.904;0.144653
5.905;0.18219
5.906;0.221252
5.907;0.260925
5.908;0.299988
5.909;0.337219
5.91;0.372314
5.911;0.404053
5.912;0.433044
5.913;0.458984
5.914;0.482483
5.915;0.503235
5.916;0.520935
5.917;0.534668
5.918;0.543213
5.919;0.546265
5.92;0.542603
5.921;0.531921
5.922;0.514526
5.923;0.490723
5.924;0.461121
5.925;0.426025
5.926;0.386353
5.927;0.343323
5.928;0.297241
5.929;0.249023
5.93;0.198975
5.931;0.148315
5.932;0.0970459
5.933;0.0463867
5.934;-0.00274658
5.935;-0.0500488
5.936;-0.0946045
5.937;-0.135193
5.938;-0.172119
5.939;-0.204468
5.94;-0.231628
5.941;-0.254211
5.942;-0.271301
5.943;-0.283508
5.944;-0.291138
5.945;-0.294189
5.946;-0.292969
5.947;-0.288086
5.948;-0.280151
5.949;-0.26947
5.95;-0.256958
5.951;-0.24292
5.952;-0.227661
5.953;-0.212097
5.954;-0.196533
5.955;-0.181274
5.956;-0.166931
5.957;-0.153809
5.958;-0.142517
5.959;-0.133057
5.96;-0.125122
5.961;-0.119324
5.962;-0.115051
5.963;-0.112305
5.964;-0.110779
5.965;-0.110168
5.966;-0.111084
5.967;-0.112915
5.968;-0.115967
5.969;-0.119629
5.97;-0.123596
5.971;-0.127563
5.972;-0.131531
5.973;-0.135498
5.974;-0.139465
5.975;-0.143127
5.976;-0.146484
5.977;-0.149231
5.978;-0.151367
5.979;-0.152893
5.98;-0.154114
5.981;-0.154724
5.982;-0.155029
5.983;-0.154724
5.984;-0.154724
5.985;-0.154419
5.986;-0.153809
5.987;-0.153198
5.988;-0.152283
5.989;-0.151062
5.99;-0.149841
5.991;-0.148315
5.992;-0.14679
5.993;-0.144958
5.994;-0.142517
5.995;-0.140076
5.996;-0.137634
5.997;-0.135498
5.998;-0.133667
5.999;-0.132446
6;-0.132141
6.001;-0.132141
6.002;-0.132446
6.003;-0.132751
6.004;-0.133057
6.005;-0.133057
6.006;-0.132751
6.007;-0.132141
6.008;-0.131531
6.009;-0.13031
6.01;-0.129089
6.011;-0.127869
6.012;-0.126648
6.013;-0.125427
6.014;-0.123901
6.015;-0.122375
6.016;-0.120544
6.017;-0.118713
6.018;-0.116882
6.019;-0.115051
6.02;-0.113525
6.021;-0.112305
6.022;-0.111389
6.023;-0.110474
6.024;-0.109558
6.025;-0.108948
6.026;-0.108643
6.027;-0.108337
6.028;-0.108032
6.029;-0.108032
6.03;-0.107727
6.031;-0.107422
6.032;-0.107117
6.033;-0.106812
6.034;-0.106201
6.035;-0.105591
6.036;-0.105286
6.037;-0.104675
6.038;-0.104065
6.039;-0.10376
6.04;-0.103455
6.041;-0.103149
6.042;-0.102844
6.043;-0.102844
6.044;-0.102844
6.045;-0.102539
6.046;-0.101929
6.047;-0.101013
6.048;-0.100098
6.049;-0.0991821
6.05;-0.0979614
6.051;-0.0967407
6.052;-0.0961304
6.053;-0.09552
6.054;-0.0949097
6.055;-0.0939941
6.056;-0.0927734
6.057;-0.0909424
6.058;-0.0891113
6.059;-0.0872803
6.06;-0.0848389
6.061;-0.0823975
6.062;-0.0796509
6.063;-0.0772095
6.064;-0.0753784
6.065;-0.0738525
6.066;-0.0726318
6.067;-0.0717163
6.068;-0.071106
6.069;-0.0714111
6.07;-0.0720215
6.071;-0.0732422
6.072;-0.0747681
6.073;-0.0769043
6.074;-0.0787354
6.075;-0.0802612
6.076;-0.0814819
6.077;-0.0823975
6.078;-0.0830078
6.079;-0.0830078
6.08;-0.0827026
6.081;-0.0817871
6.082;-0.0802612
6.083;-0.0784302
6.084;-0.0762939
6.085;-0.0738525
6.086;-0.0714111
6.087;-0.0680542
6.088;-0.0643921
6.089;-0.0601196
6.09;-0.055542
6.091;-0.0509644
6.092;-0.0463867
6.093;-0.0418091
6.094;-0.0372314
6.095;-0.0332642
6.096;-0.0292969
6.097;-0.0259399
6.098;-0.0228882
6.099;-0.0201416
6.1;-0.017395
6.101;-0.0149536
6.102;-0.0125122
6.103;-0.010376
6.104;-0.0088501
6.105;-0.00762939
6.106;-0.00701904
6.107;-0.00610352
6.108;-0.00518799
6.109;-0.00396729
6.11;-0.00274658
6.111;-0.000610352
6.112;0.00152588
6.113;0.00366211
6.114;0.00579834
6.115;0.00732422
6.116;0.0088501
6.117;0.00946045
6.118;0.0100708
6.119;0.0100708
6.12;0.010376
6.121;0.010376
6.122;0.0106812
6.123;0.0112915
6.124;0.012207
6.125;0.0134277
6.126;0.0143433
6.127;0.015564
6.128;0.0167847
6.129;0.0177002
6.13;0.0189209
6.131;0.0198364
6.132;0.0210571
6.133;0.0222778
6.134;0.0231934
6.135;0.0244141
6.136;0.0256348
6.137;0.0271606
6.138;0.0289917
6.139;0.0305176
6.14;0.0320435
6.141;0.0335693
6.142;0.0350952
6.143;0.0363159
6.144;0.0375366
6.145;0.0384521
6.146;0.0390625
6.147;0.0393677
6.148;0.0396729
6.149;0.0396729
6.15;0.0393677
6.151;0.0387573
6.152;0.0378418
6.153;0.0369263
6.154;0.0360107
6.155;0.0350952
6.156;0.03479
6.157;0.03479
6.158;0.0350952
6.159;0.0360107
6.16;0.0372314
6.161;0.0387573
6.162;0.0402832
6.163;0.0415039
6.164;0.0424194
6.165;0.0427246
6.166;0.0430298
6.167;0.0427246
6.168;0.0424194
6.169;0.0415039
6.17;0.0402832
6.171;0.0384521
6.172;0.0357056
6.173;0.0326538
6.174;0.0283813
6.175;0.0238037
6.176;0.0180054
6.177;0.012207
6.178;0.00579834
6.179;-0.000915527
6.18;-0.00762939
6.181;-0.0143433
6.182;-0.0213623
6.183;-0.0280762
6.184;-0.0350952
6.185;-0.0418091
6.186;-0.0482178
6.187;-0.0540161
6.188;-0.0592041
6.189;-0.0634766
6.19;-0.0674438
6.191;-0.0708008
6.192;-0.0735474
6.193;-0.0762939
6.194;-0.0784302
6.195;-0.0805664
6.196;-0.0830078
6.197;-0.0857544
6.198;-0.088501
6.199;-0.0915527
6.2;-0.0949097
6.201;-0.0985718
6.202;-0.102539
6.203;-0.107117
6.204;-0.112
6.205;-0.117493
6.206;-0.123291
6.207;-0.129089
6.208;-0.134888
6.209;-0.140991
6.21;-0.14679
6.211;-0.152283
6.212;-0.158081
6.213;-0.163574
6.214;-0.168762
6.215;-0.173645
6.216;-0.177917
6.217;-0.181885
6.218;-0.185242
6.219;-0.188599
6.22;-0.191956
6.221;-0.195312
6.222;-0.198975
6.223;-0.202332
6.224;-0.205688
6.225;-0.20874
6.226;-0.211792
6.227;-0.214233
6.228;-0.216064
6.229;-0.21759
6.23;-0.218811
6.231;-0.220032
6.232;-0.221558
6.233;-0.223694
6.234;-0.226135
6.235;-0.228882
6.236;-0.231934
6.237;-0.23468
6.238;-0.237427
6.239;-0.239258
6.24;-0.240479
6.241;-0.241089
6.242;-0.241089
6.243;-0.240479
6.244;-0.239563
6.245;-0.238647
6.246;-0.237732
6.247;-0.236511
6.248;-0.235291
6.249;-0.23407
6.25;-0.232544
6.251;-0.231018
6.252;-0.229492
6.253;-0.228271
6.254;-0.226746
6.255;-0.225525
6.256;-0.224304
6.257;-0.223389
6.258;-0.222473
6.259;-0.221558
6.26;-0.220947
6.261;-0.220642
6.262;-0.220947
6.263;-0.221558
6.264;-0.223083
6.265;-0.224609
6.266;-0.226746
6.267;-0.229187
6.268;-0.231628
6.269;-0.23407
6.27;-0.236206
6.271;-0.238037
6.272;-0.239563
6.273;-0.240784
6.274;-0.241699
6.275;-0.24231
6.276;-0.242615
6.277;-0.242615
6.278;-0.24231
6.279;-0.242004
6.28;-0.241699
6.281;-0.240784
6.282;-0.239868
6.283;-0.238647
6.284;-0.237122
6.285;-0.235901
6.286;-0.23407
6.287;-0.232544
6.288;-0.231018
6.289;-0.229797
6.29;-0.228577
6.291;-0.227661
6.292;-0.226746
6.293;-0.22583
6.294;-0.22522
6.295;-0.224304
6.296;-0.223389
6.297;-0.222473
6.298;-0.221558
6.299;-0.220947
6.3;-0.220032
6.301;-0.219421
6.302;-0.218811
6.303;-0.218201
6.304;-0.217285
6.305;-0.21637
6.306;-0.215454
6.307;-0.214233
6.308;-0.213013
6.309;-0.211182
6.31;-0.209656
6.311;-0.20813
6.312;-0.206604
6.313;-0.205383
6.314;-0.204468
6.315;-0.203857
6.316;-0.203857
6.317;-0.204468
6.318;-0.204773
6.319;-0.205383
6.32;-0.205994
6.321;-0.205994
6.322;-0.205688
6.323;-0.204773
6.324;-0.203552
6.325;-0.202332
6.326;-0.201111
6.327;-0.200195
6.328;-0.19989
6.329;-0.199585
6.33;-0.19928
6.331;-0.198975
6.332;-0.198669
6.333;-0.198059
6.334;-0.196838
6.335;-0.195618
6.336;-0.194092
6.337;-0.192871
6.338;-0.191956
6.339;-0.19165
6.34;-0.19165
6.341;-0.191956
6.342;-0.192566
6.343;-0.193481
6.344;-0.194702
6.345;-0.196228
6.346;-0.198059
6.347;-0.19989
6.348;-0.201721
6.349;-0.203247
6.35;-0.204773
6.351;-0.205994
6.352;-0.206909
6.353;-0.20752
6.354;-0.20813
6.355;-0.20813
6.356;-0.20813
6.357;-0.207825
6.358;-0.20752
6.359;-0.206604
6.36;-0.205994
6.361;-0.204773
6.362;-0.203552
6.363;-0.202026
6.364;-0.2005
6.365;-0.198975
6.366;-0.197449
6.367;-0.196228
6.368;-0.195618
6.369;-0.195312
6.37;-0.195312
6.371;-0.195618
6.372;-0.195923
6.373;-0.196228
6.374;-0.196838
6.375;-0.196838
6.376;-0.196838
6.377;-0.196228
6.378;-0.195618
6.379;-0.194702
6.38;-0.193787
6.381;-0.192871
6.382;-0.191956
6.383;-0.190735
6.384;-0.189819
6.385;-0.188904
6.386;-0.187988
6.387;-0.187683
6.388;-0.187378
6.389;-0.187073
6.39;-0.187073
6.391;-0.187378
6.392;-0.187683
6.393;-0.187988
6.394;-0.188599
6.395;-0.188904
6.396;-0.189209
6.397;-0.189514
6.398;-0.189819
6.399;-0.190735
6.4;-0.191956
6.401;-0.193481
6.402;-0.195312
6.403;-0.196838
6.404;-0.198364
6.405;-0.198975
6.406;-0.19928
6.407;-0.198669
6.408;-0.197449
6.409;-0.195618
6.41;-0.193481
6.411;-0.191345
6.412;-0.189209
6.413;-0.187683
6.414;-0.185852
6.415;-0.184326
6.416;-0.1828
6.417;-0.181274
6.418;-0.180054
6.419;-0.179138
6.42;-0.178528
6.421;-0.178528
6.422;-0.178528
6.423;-0.179138
6.424;-0.180054
6.425;-0.180969
6.426;-0.18219
6.427;-0.183105
6.428;-0.184021
6.429;-0.184937
6.43;-0.185547
6.431;-0.186462
6.432;-0.187073
6.433;-0.187683
6.434;-0.188599
6.435;-0.189514
6.436;-0.190125
6.437;-0.190735
6.438;-0.19104
6.439;-0.19104
6.44;-0.190735
6.441;-0.190125
6.442;-0.188904
6.443;-0.187988
6.444;-0.186768
6.445;-0.185852
6.446;-0.185242
6.447;-0.184937
6.448;-0.184937
6.449;-0.185852
6.45;-0.187073
6.451;-0.188904
6.452;-0.190735
6.453;-0.192566
6.454;-0.194702
6.455;-0.196533
6.456;-0.198975
6.457;-0.201111
6.458;-0.203552
6.459;-0.205688
6.46;-0.207825
6.461;-0.209656
6.462;-0.211182
6.463;-0.212402
6.464;-0.213318
6.465;-0.213623
6.466;-0.213623
6.467;-0.213318
6.468;-0.212097
6.469;-0.210876
6.47;-0.209045
6.471;-0.207214
6.472;-0.204773
6.473;-0.202332
6.474;-0.199585
6.475;-0.196838
6.476;-0.194397
6.477;-0.191956
6.478;-0.189819
6.479;-0.187378
6.48;-0.184937
6.481;-0.18219
6.482;-0.180359
6.483;-0.178833
6.484;-0.177917
6.485;-0.177917
6.486;-0.178223
6.487;-0.179443
6.488;-0.181274
6.489;-0.183105
6.49;-0.184937
6.491;-0.187073
6.492;-0.189514
6.493;-0.192261
6.494;-0.195007
6.495;-0.198059
6.496;-0.200806
6.497;-0.203857
6.498;-0.206604
6.499;-0.209045
6.5;-0.210571
6.501;-0.211487
6.502;-0.211792
6.503;-0.211487
6.504;-0.210876
6.505;-0.209961
6.506;-0.209045
6.507;-0.208435
6.508;-0.20813
6.509;-0.20752
6.51;-0.206909
6.511;-0.205994
6.512;-0.204773
6.513;-0.203247
6.514;-0.201416
6.515;-0.199585
6.516;-0.197754
6.517;-0.195923
6.518;-0.194397
6.519;-0.193176
6.52;-0.192261
6.521;-0.191956
6.522;-0.192261
6.523;-0.192871
6.524;-0.194092
6.525;-0.195007
6.526;-0.195923
6.527;-0.196533
6.528;-0.196838
6.529;-0.196838
6.53;-0.196838
6.531;-0.197144
6.532;-0.197449
6.533;-0.198059
6.534;-0.198975
6.535;-0.199585
6.536;-0.2005
6.537;-0.201721
6.538;-0.202942
6.539;-0.204163
6.54;-0.204773
6.541;-0.205078
6.542;-0.204773
6.543;-0.204163
6.544;-0.203247
6.545;-0.202332
6.546;-0.201111
6.547;-0.199585
6.548;-0.198059
6.549;-0.196533
6.55;-0.195007
6.551;-0.193787
6.552;-0.192261
6.553;-0.19104
6.554;-0.19043
6.555;-0.189819
6.556;-0.189819
6.557;-0.189819
6.558;-0.190125
6.559;-0.190735
6.56;-0.191956
6.561;-0.193176
6.562;-0.194702
6.563;-0.196228
6.564;-0.197754
6.565;-0.198975
6.566;-0.19989
6.567;-0.200806
6.568;-0.201416
6.569;-0.201721
6.57;-0.202332
6.571;-0.202637
6.572;-0.202942
6.573;-0.203552
6.574;-0.203857
6.575;-0.204163
6.576;-0.204163
6.577;-0.203857
6.578;-0.203552
6.579;-0.202942
6.58;-0.202637
6.581;-0.202332
6.582;-0.202332
6.583;-0.202332
6.584;-0.202332
6.585;-0.202637
6.586;-0.202637
6.587;-0.202332
6.588;-0.202332
6.589;-0.202026
6.59;-0.201721
6.591;-0.201111
6.592;-0.2005
6.593;-0.199585
6.594;-0.198364
6.595;-0.197144
6.596;-0.195618
6.597;-0.193787
6.598;-0.191956
6.599;-0.190125
6.6;-0.187988
6.601;-0.185852
6.602;-0.183716
6.603;-0.18158
6.604;-0.179749
6.605;-0.178223
6.606;-0.176697
6.607;-0.174866
6.608;-0.17334
6.609;-0.171204
6.61;-0.169067
6.611;-0.166626
6.612;-0.16449
6.613;-0.162659
6.614;-0.160522
6.615;-0.158997
6.616;-0.157166
6.617;-0.15564
6.618;-0.154114
6.619;-0.152283
6.62;-0.149841
6.621;-0.1474
6.622;-0.144348
6.623;-0.140991
6.624;-0.137634
6.625;-0.134277
6.626;-0.131531
6.627;-0.128784
6.628;-0.126343
6.629;-0.123901
6.63;-0.12146
6.631;-0.118408
6.632;-0.115356
6.633;-0.112
6.634;-0.108337
6.635;-0.104675
6.636;-0.101013
6.637;-0.0979614
6.638;-0.0952148
6.639;-0.0933838
6.64;-0.0921631
6.641;-0.0918579
6.642;-0.0921631
6.643;-0.0930786
6.644;-0.0946045
6.645;-0.0964355
6.646;-0.098877
6.647;-0.101929
6.648;-0.105591
6.649;-0.109253
6.65;-0.112915
6.651;-0.117188
6.652;-0.12146
6.653;-0.126343
6.654;-0.13092
6.655;-0.135498
6.656;-0.139771
6.657;-0.143738
6.658;-0.147095
6.659;-0.150757
6.66;-0.154114
6.661;-0.157776
6.662;-0.161133
6.663;-0.16449
6.664;-0.167542
6.665;-0.170593
6.666;-0.17334
6.667;-0.176086
6.668;-0.178833
6.669;-0.181274
6.67;-0.183411
6.671;-0.185852
6.672;-0.187988
6.673;-0.190125
6.674;-0.192871
6.675;-0.195618
6.676;-0.198975
6.677;-0.202332
6.678;-0.205688
6.679;-0.20874
6.68;-0.211487
6.681;-0.213928
6.682;-0.215759
6.683;-0.21698
6.684;-0.218201
6.685;-0.219116
6.686;-0.220032
6.687;-0.220642
6.688;-0.220947
6.689;-0.221252
6.69;-0.220947
6.691;-0.220642
6.692;-0.220337
6.693;-0.220337
6.694;-0.220337
6.695;-0.221252
6.696;-0.222473
6.697;-0.223694
6.698;-0.22522
6.699;-0.226135
6.7;-0.226135
6.701;-0.22583
6.702;-0.224915
6.703;-0.223389
6.704;-0.221558
6.705;-0.219116
6.706;-0.216064
6.707;-0.212402
6.708;-0.20752
6.709;-0.201111
6.71;-0.193481
6.711;-0.184021
6.712;-0.172424
6.713;-0.159302
6.714;-0.143738
6.715;-0.126038
6.716;-0.105591
6.717;-0.0827026
6.718;-0.0570679
6.719;-0.0289917
6.72;0.00183105
6.721;0.0354004
6.722;0.0717163
6.723;0.110779
6.724;0.151367
6.725;0.193176
6.726;0.234985
6.727;0.275574
6.728;0.314026
6.729;0.349731
6.73;0.382385
6.731;0.411987
6.732;0.438843
6.733;0.462952
6.734;0.484619
6.735;0.50293
6.736;0.517273
6.737;0.526428
6.738;0.52948
6.739;0.525818
6.74;0.514832
6.741;0.496521
6.742;0.471497
6.743;0.440063
6.744;0.403137
6.745;0.361023
6.746;0.314636
6.747;0.265198
6.748;0.213318
6.749;0.159912
6.75;0.105286
6.751;0.0506592
6.752;-0.00335693
6.753;-0.055542
6.754;-0.105591
6.755;-0.152283
6.756;-0.195312
6.757;-0.23407
6.758;-0.26825
6.759;-0.297241
6.76;-0.32074
6.761;-0.33844
6.762;-0.350952
6.763;-0.357666
6.764;-0.359497
6.765;-0.356445
6.766;-0.349731
6.767;-0.339355
6.768;-0.326233
6.769;-0.310669
6.77;-0.293579
6.771;-0.275574
6.772;-0.257263
6.773;-0.239563
6.774;-0.223083
6.775;-0.20813
6.776;-0.195312
6.777;-0.184937
6.778;-0.177002
6.779;-0.171509
6.78;-0.168152
6.781;-0.166931
6.782;-0.167236
6.783;-0.169067
6.784;-0.171814
6.785;-0.175476
6.786;-0.179443
6.787;-0.183716
6.788;-0.188293
6.789;-0.192566
6.79;-0.196838
6.791;-0.2005
6.792;-0.203857
6.793;-0.206299
6.794;-0.207825
6.795;-0.20874
6.796;-0.209045
6.797;-0.208435
6.798;-0.20752
6.799;-0.205688
6.8;-0.203552
6.801;-0.201416
6.802;-0.198975
6.803;-0.196533
6.804;-0.194092
6.805;-0.192261
6.806;-0.19043
6.807;-0.189209
6.808;-0.188293
6.809;-0.187683
6.81;-0.187683
6.811;-0.187988
6.812;-0.188293
6.813;-0.188599
6.814;-0.188599
6.815;-0.188599
6.816;-0.188904
6.817;-0.188904
6.818;-0.189514
6.819;-0.19043
6.82;-0.191345
6.821;-0.191956
6.822;-0.192871
6.823;-0.193176
6.824;-0.193481
6.825;-0.193787
6.826;-0.193481
6.827;-0.192871
6.828;-0.191956
6.829;-0.190735
6.83;-0.189209
6.831;-0.187988
6.832;-0.186462
6.833;-0.184631
6.834;-0.182495
6.835;-0.180664
6.836;-0.178528
6.837;-0.177002
6.838;-0.175476
6.839;-0.174255
6.84;-0.17334
6.841;-0.172119
6.842;-0.170898
6.843;-0.169373
6.844;-0.167847
6.845;-0.166321
6.846;-0.16449
6.847;-0.162964
6.848;-0.161438
6.849;-0.159912
6.85;-0.158691
6.851;-0.157166
6.852;-0.155945
6.853;-0.154419
6.854;-0.153198
6.855;-0.151978
6.856;-0.151062
6.857;-0.150146
6.858;-0.149841
6.859;-0.149536
6.86;-0.149231
6.861;-0.148621
6.862;-0.148315
6.863;-0.1474
6.864;-0.14679
6.865;-0.146179
6.866;-0.145569
6.867;-0.145264
6.868;-0.144958
6.869;-0.145264
6.87;-0.145264
6.871;-0.145264
6.872;-0.144958
6.873;-0.144043
6.874;-0.143127
6.875;-0.141602
6.876;-0.140076
6.877;-0.138245
6.878;-0.136414
6.879;-0.134888
6.88;-0.133362
6.881;-0.131531
6.882;-0.1297
6.883;-0.127869
6.884;-0.126038
6.885;-0.124207
6.886;-0.122375
6.887;-0.12085
6.888;-0.119324
6.889;-0.117798
6.89;-0.116272
6.891;-0.114746
6.892;-0.113831
6.893;-0.112915
6.894;-0.112305
6.895;-0.111694
6.896;-0.111084
6.897;-0.110779
6.898;-0.110474
6.899;-0.109863
6.9;-0.109558
6.901;-0.109253
6.902;-0.108948
6.903;-0.108643
6.904;-0.108032
6.905;-0.107422
6.906;-0.106201
6.907;-0.10437
6.908;-0.102539
6.909;-0.0997925
6.91;-0.0967407
6.911;-0.0933838
6.912;-0.0894165
6.913;-0.085144
6.914;-0.0805664
6.915;-0.0759888
6.916;-0.071106
6.917;-0.0662231
6.918;-0.0610352
6.919;-0.0561523
6.92;-0.0518799
6.921;-0.0476074
6.922;-0.0436401
6.923;-0.0402832
6.924;-0.0372314
6.925;-0.0344849
6.926;-0.0323486
6.927;-0.0305176
6.928;-0.0286865
6.929;-0.0268555
6.93;-0.0250244
6.931;-0.0234985
6.932;-0.0219727
6.933;-0.0204468
6.934;-0.0186157
6.935;-0.0170898
6.936;-0.015564
6.937;-0.0137329
6.938;-0.0115967
6.939;-0.00946045
6.94;-0.00701904
6.941;-0.00396729
6.942;-0.000915527
6.943;0.00213623
6.944;0.00579834
6.945;0.00946045
6.946;0.0134277
6.947;0.017395
6.948;0.0216675
6.949;0.0253296
6.95;0.0289917
6.951;0.0320435
6.952;0.03479
6.953;0.0372314
6.954;0.0393677
6.955;0.0411987
6.956;0.0427246
6.957;0.0442505
6.958;0.045166
6.959;0.0463867
6.96;0.0473022
6.961;0.0482178
6.962;0.0491333
6.963;0.050354
6.964;0.0512695
6.965;0.0524902
6.966;0.0537109
6.967;0.0552368
6.968;0.0567627
6.969;0.0579834
6.97;0.0588989
6.971;0.0595093
6.972;0.0595093
6.973;0.0595093
6.974;0.0592041
6.975;0.0582886
6.976;0.057373
6.977;0.0558472
6.978;0.0540161
6.979;0.0521851
6.98;0.050354
6.981;0.0479126
6.982;0.0457764
6.983;0.0430298
6.984;0.0402832
6.985;0.0372314
6.986;0.0338745
6.987;0.0299072
6.988;0.0259399
6.989;0.0216675
6.99;0.0170898
6.991;0.0125122
6.992;0.00762939
6.993;0.00244141
6.994;-0.00274658
6.995;-0.00762939
