ECG5.txt

60.000000
92.255319
305.861702
57.446809
###BEGIN DATA WAVES
643.000000 -0.001221 709.000000 -0.127563 746.000000 0.614624 772.000000 -0.273438 978.000000 0.118103
1537.000000 -0.040894 1596.000000 -0.142517 1637.000000 0.608521 1663.000000 -0.243835 1873.000000 0.166626
2377.000000 0.014648 2435.000000 -0.113525 2470.000000 0.639038 2497.000000 -0.208740 2712.000000 0.133362
3185.000000 0.002747 3251.000000 -0.119934 3287.000000 0.645752 3313.000000 -0.234070 3532.000000 0.148926
4085.000000 0.004272 4133.000000 -0.101318 4188.000000 0.645447 4213.000000 -0.227661 4417.000000 0.207520
5000.000000 0.058594 5063.000000 -0.071716 5099.000000 0.668030 5125.000000 -0.214844 5325.000000 0.180359
7524.000000 -0.068359 7583.000000 -0.176697 7622.000000 0.595398 7648.000000 -0.305786 7866.000000 0.189209
8422.000000 0.027466 8482.000000 -0.075378 8520.000000 0.660095 8545.000000 -0.234985 8746.000000 0.134888
11028.000000 -0.072937 11091.000000 -0.181274 11129.000000 0.593872 11153.000000 -0.306396 11356.000000 0.146790
12769.000000 -0.146790 12770.000000 -0.145264 12919.000000 0.622253 12945.000000 -0.242920 13157.000000 0.189514
13583.000000 0.050354 13647.000000 -0.083008 13681.000000 0.662842 13708.000000 -0.204773 13917.000000 0.174561
14433.000000 0.041504 14491.000000 -0.078125 14530.000000 0.707092 14555.000000 -0.213013 14759.000000 0.220337
15296.000000 0.050354 15361.000000 -0.065002 15397.000000 0.697632 15423.000000 -0.200806 15636.000000 0.206909
16205.000000 0.013123 16254.000000 -0.114441 16305.000000 0.652161 16330.000000 -0.245972 16541.000000 0.148621
17055.000000 -0.034180 17120.000000 -0.145569 17152.000000 0.600891 17179.000000 -0.277405 17395.000000 0.094604
17908.000000 -0.017090 17968.000000 -0.148621 18007.000000 0.642090 18032.000000 -0.271912 18245.000000 0.175476
18789.000000 0.047607 18845.000000 -0.082092 18882.000000 0.693665 18908.000000 -0.211487 19127.000000 0.191956
19697.000000 -0.012512 19754.000000 -0.140991 19795.000000 0.607605 19821.000000 -0.279541 20037.000000 0.128784
20483.000000 -0.021362 20543.000000 -0.162964 20580.000000 0.616150 20607.000000 -0.236511 20828.000000 0.130615
21305.000000 0.002441 21367.000000 -0.119629 21406.000000 0.661926 21431.000000 -0.260620 21650.000000 0.201416
22160.000000 0.075989 22224.000000 -0.054932 22260.000000 0.714722 22286.000000 -0.187378 22487.000000 0.195618
23034.000000 -0.035400 23093.000000 -0.144348 23138.000000 0.597229 23163.000000 -0.292664 23380.000000 0.118103
24617.000000 -0.018921 24682.000000 -0.137939 24721.000000 0.607910 24747.000000 -0.264587 24967.000000 0.164185
25464.000000 0.048523 25512.000000 -0.068054 25561.000000 0.710449 25587.000000 -0.202026 25801.000000 0.225830
26325.000000 0.062866 26387.000000 -0.055542 26423.000000 0.704041 26449.000000 -0.194092 26651.000000 0.260620
27130.000000 0.061951 27194.000000 -0.069885 27230.000000 0.657043 27257.000000 -0.185852 27473.000000 0.197754
27858.000000 0.033569 27922.000000 -0.102234 27959.000000 0.646362 27985.000000 -0.222778 28198.000000 0.187683
28653.000000 0.014038 28718.000000 -0.082092 28756.000000 0.663147 28781.000000 -0.231628 28993.000000 0.195007
29476.000000 0.032959 29536.000000 -0.085754 29574.000000 0.679321 29599.000000 -0.218811 29811.000000 0.191345
30312.000000 0.007935 30370.000000 -0.108948 30407.000000 0.633240 30433.000000 -0.226746 30654.000000 0.159302
31038.000000 0.005188 31105.000000 -0.125122 31137.000000 0.598450 31164.000000 -0.220032 31372.000000 0.128784
31766.000000 -0.024719 31829.000000 -0.155334 31866.000000 0.588074 31892.000000 -0.284729 32111.000000 0.129089
32566.000000 -0.001831 32634.000000 -0.132141 32670.000000 0.639954 32695.000000 -0.271912 32905.000000 0.153503
33415.000000 -0.020447 33479.000000 -0.128784 33515.000000 0.626831 33540.000000 -0.274353 33754.000000 0.157776
34982.000000 -0.007019 35049.000000 -0.160522 35081.000000 0.591125 35108.000000 -0.247803 35308.000000 0.112000
36527.000000 0.026856 36588.000000 -0.093079 36627.000000 0.665894 36652.000000 -0.220642 36859.000000 0.235596
37396.000000 -0.006104 37446.000000 -0.143738 37502.000000 0.610962 37527.000000 -0.295715 37736.000000 0.110474
39030.000000 -0.075989 39065.000000 -0.161438 39127.000000 0.588989 39154.000000 -0.269470 39364.000000 0.079956
39802.000000 0.074158 39860.000000 -0.046387 39900.000000 0.721130 39925.000000 -0.197144 40136.000000 0.245056
40618.000000 0.085449 40677.000000 -0.031433 40718.000000 0.723877 40743.000000 -0.170593 40954.000000 0.271301
41478.000000 0.043640 41540.000000 -0.096741 41578.000000 0.670471 41603.000000 -0.220642 41817.000000 0.182495
42280.000000 -0.005493 42333.000000 -0.138855 42370.000000 0.617065 42397.000000 -0.243835 42600.000000 0.131531
43078.000000 0.028076 43139.000000 -0.089722 43176.000000 0.689087 43202.000000 -0.231018 43416.000000 0.222473
43960.000000 0.039368 44026.000000 -0.110474 44064.000000 0.652771 44090.000000 -0.266113 44290.000000 0.060425
45466.000000 0.099487 45507.000000 -0.001526 45561.000000 0.755310 45586.000000 -0.134277 45793.000000 0.278320
46234.000000 0.123291 46291.000000 -0.019836 46328.000000 0.765686 46354.000000 -0.150452 46561.000000 0.267029
47009.000000 0.148926 47073.000000 0.009766 47109.000000 0.760193 47134.000000 -0.084839 47352.000000 0.347595
47763.000000 0.169067 47826.000000 0.022888 47860.000000 0.751343 47887.000000 -0.103149 48093.000000 0.257263
49948.000000 0.055847 49989.000000 -0.077820 50046.000000 0.716248 50071.000000 -0.204773 50274.000000 0.248718
50743.000000 0.112915 50806.000000 0.003967 50842.000000 0.782776 50867.000000 -0.133057 51078.000000 0.274963
51534.000000 0.086670 51595.000000 -0.061951 51631.000000 0.697327 51656.000000 -0.182800 51865.000000 0.223083
52256.000000 0.064392 52311.000000 -0.068970 52347.000000 0.674438 52373.000000 -0.164795 52586.000000 0.220032
53006.000000 0.085144 53064.000000 -0.037537 53108.000000 0.735168 53133.000000 -0.169983 53347.000000 0.235291
53756.000000 0.083923 53822.000000 -0.023193 53857.000000 0.736694 53882.000000 -0.162964 54086.000000 0.259094
54522.000000 0.042725 54573.000000 -0.056763 54611.000000 0.715637 54636.000000 -0.186462 54839.000000 0.245361
55267.000000 0.042419 55326.000000 -0.069580 55361.000000 0.693970 55386.000000 -0.166321 55580.000000 0.195312
55936.000000 0.023498 55995.000000 -0.103760 56045.000000 0.626526 56071.000000 -0.228577 56276.000000 0.163879
56688.000000 -0.027466 56754.000000 -0.155029 56790.000000 0.635376 56815.000000 -0.278931 57039.000000 0.153809
59246.000000 -0.170288 59265.000000 -0.425720 59402.000000 0.704041 59566.000000 -0.390625 59585.000000 -0.115051
60529.000000 0.049744 60554.000000 -0.103760 60619.000000 0.696106 60645.000000 -0.215149 60842.000000 0.330505
61138.000000 0.277405 61201.000000 0.108643 61238.000000 0.889282 61264.000000 0.024109 61483.000000 0.502930
61681.000000 0.344238 61744.000000 0.312500 61893.000000 1.105040 61918.000000 0.257874 62137.000000 0.780029
61893.000000 1.105040 61989.000000 0.474243 62137.000000 0.780029 62203.000000 0.485840 62440.000000 0.681152
62137.000000 0.780029 62236.000000 0.488892 62359.000000 0.641174 62527.000000 0.552673 62561.000000 1.247860
62359.000000 0.641174 62379.000000 0.583801 62440.000000 0.681152 62588.000000 0.419922 62828.000000 0.747070
62440.000000 0.681152 62527.000000 0.552673 62561.000000 1.247860 62641.000000 0.599670 62930.000000 0.597534
62561.000000 1.247860 62588.000000 0.419922 62605.000000 0.603943 62762.000000 0.783691 63061.000000 0.639648
62605.000000 0.603943 62652.000000 0.601501 62801.000000 0.851746 62912.000000 0.554810 63190.000000 1.218570
62813.000000 0.809631 62912.000000 0.554810 62930.000000 0.597534 63129.000000 0.520325 63418.000000 0.762329
62930.000000 0.597534 62945.000000 0.566406 63091.000000 0.674133 63216.000000 0.403137 63430.000000 0.739136
63091.000000 0.674133 63136.000000 0.506287 63190.000000 1.218570 63301.000000 0.616760 63581.000000 0.527954
63190.000000 1.218570 63216.000000 0.403137 63234.000000 0.606384 63433.000000 0.732422 63713.000000 0.596313
63234.000000 0.606384 63269.000000 0.586243 63418.000000 0.762329 63525.000000 0.456848 63813.000000 1.156620
63581.000000 0.527954 63619.000000 0.493469 63713.000000 0.596313 63838.000000 0.317383 64039.000000 0.646973
63713.000000 0.596313 63774.000000 0.461426 63813.000000 1.156620 63914.000000 0.488586 64213.000000 0.427856
63813.000000 1.156620 63907.000000 0.482788 64039.000000 0.646973 64118.000000 0.361328 64383.000000 0.515137
64383.000000 0.515137 64422.000000 0.347290 64482.000000 1.045840 64508.000000 0.170288 64710.000000 0.579529
65064.000000 0.420837 65090.000000 0.255737 65155.000000 0.967407 65180.000000 0.091858 65382.000000 0.492554
65714.000000 0.354919 65786.000000 0.177307 65818.000000 0.874329 65844.000000 0.076904 66022.000000 0.356445
66360.000000 0.185547 66423.000000 -0.004578 66460.000000 0.637207 66486.000000 -0.153503 66682.000000 0.181274
67043.000000 0.115967 67091.000000 -0.016785 67133.000000 0.719910 67158.000000 -0.160828 67369.000000 0.195312
67723.000000 0.084228 67788.000000 -0.064697 67823.000000 0.641785 67848.000000 -0.206604 68040.000000 0.189819
68450.000000 0.038452 68515.000000 -0.095520 68548.000000 0.590820 68574.000000 -0.227661 68786.000000 0.122681
78010.000000 -0.056763 78046.000000 -0.181885 78108.000000 0.588989 78133.000000 -0.293274 78341.000000 0.181580
81403.000000 -0.066528 81465.000000 -0.167847 81502.000000 0.603943 81528.000000 -0.300293 81735.000000 0.158386
82308.000000 -0.006104 82363.000000 -0.114746 82401.000000 0.628357 82426.000000 -0.244141 82639.000000 0.194397
83109.000000 0.020447 83177.000000 -0.103455 83212.000000 0.636902 83239.000000 -0.217896 83448.000000 0.147095
83974.000000 0.006714 84037.000000 -0.124512 84075.000000 0.668335 84100.000000 -0.260315 84313.000000 0.172119
84870.000000 -0.016480 84937.000000 -0.115051 84972.000000 0.667419 84997.000000 -0.276184 85212.000000 0.163269
85740.000000 -0.024109 85801.000000 -0.160828 85835.000000 0.592346 85861.000000 -0.254822 86080.000000 0.149231
87408.000000 -0.089416 87477.000000 -0.213318 87513.000000 0.588074 87538.000000 -0.333862 87748.000000 0.061035
89969.000000 -0.051575 90030.000000 -0.187073 90070.000000 0.598755 90095.000000 -0.331726 90312.000000 0.090942
90838.000000 -0.055542 90901.000000 -0.184631 90936.000000 0.600281 90962.000000 -0.313721 91166.000000 0.104065
93360.000000 -0.062866 93432.000000 -0.182800 93469.000000 0.596313 93494.000000 -0.337524 93713.000000 0.108337
###END DATA WAVES
###BEGIN DATA HEARTBEAT
60.000000
36.000000
48.000000
72.000000
60.000000
72.000000
60.000000
60.000000
60.000000
48.000000
84.000000
48.000000
216.000000
72.000000
12.000000
12.000000
48.000000
24.000000
###END DATA HEARTBEAT
###BEGIN PAS
5.000000
###END PAS
