ECG6.txt

3480.000000
184.857609
129.315945
5.379081
###BEGIN DATA WAVES
0.833333 0.179138 3.716670 0.011291 4.933330 0.567322 133.650000 -1.616210 291.767000 1.299130
4.933330 0.567322 17.066700 -0.444031 84.783300 0.573425 238.617000 -0.481873 525.767000 6.414790
84.783300 0.573425 85.200000 -0.432739 96.150000 0.586548 296.100000 -0.561523 587.183000 1.600340
96.150000 0.586548 108.717000 -0.478516 112.000000 0.733337 297.183000 -0.745544 596.967000 -0.102234
112.000000 0.733337 121.133000 -0.943604 125.017000 1.084290 322.233000 -0.516052 604.967000 2.367250
125.017000 1.084290 133.650000 -1.616210 139.733000 1.201480 328.283000 -0.371399 626.733000 0.803833
139.733000 1.201480 145.583000 0.238953 146.100000 0.638428 342.933000 -0.322266 640.133000 0.961609
146.100000 0.638428 148.450000 -0.801392 159.683000 0.798035 353.800000 -0.406189 645.783000 1.351930
159.683000 0.798035 173.117000 -0.386963 196.067000 0.555725 365.283000 -0.462646 664.567000 0.710144
196.067000 0.555725 207.383000 -0.368652 217.450000 0.608521 414.867000 -0.407104 673.983000 1.017760
217.450000 0.608521 238.617000 -0.481873 271.117000 0.575256 428.267000 -0.415955 715.750000 0.473938
271.117000 0.575256 287.733000 -0.557861 291.767000 1.299130 480.600000 -0.430908 767.833000 0.758972
291.767000 1.299130 292.117000 0.501404 293.800000 0.910034 493.450000 -0.357666 787.917000 0.776672
293.800000 0.910034 297.183000 -0.745544 301.767000 0.628357 498.333000 -0.054932 794.933000 0.268860
301.767000 0.628357 322.233000 -0.516052 342.500000 0.596313 532.867000 -1.738280 798.850000 0.617676
342.500000 0.596313 342.933000 -0.322266 353.383000 0.572510 550.483000 -1.126100 836.267000 0.534363
353.383000 0.572510 365.283000 -0.462646 414.450000 0.570679 564.167000 -3.237300 859.967000 0.440063
414.450000 0.570679 428.267000 -0.415955 467.600000 0.547180 615.100000 -0.912170 871.517000 0.551147
467.600000 0.547180 480.600000 -0.430908 493.000000 0.558777 683.900000 -0.084534 966.700000 0.478821
493.000000 0.558777 493.450000 -0.357666 525.767000 6.414790 725.750000 -0.518188 993.833000 0.498352
525.767000 6.414790 532.867000 -1.738280 538.083000 0.547791 730.400000 -1.151430 1027.750000 -0.053406
538.083000 0.547791 550.483000 -1.126100 556.717000 0.844727 739.617000 -0.416870 1033.520000 0.452271
556.717000 0.844727 564.167000 -3.237300 587.183000 1.600340 778.183000 -0.110168 1073.780000 0.525818
587.183000 1.600340 597.367000 -1.024780 604.967000 2.367250 799.283000 -0.264893 1086.930000 0.457153
604.967000 2.367250 612.000000 -1.936950 626.733000 0.803833 811.317000 -0.332336 1099.820000 0.457764
626.733000 0.803833 627.150000 0.018616 636.367000 0.683594 835.050000 -0.033875 1112.530000 0.411377
636.367000 0.683594 638.317000 -0.592041 640.133000 0.961609 836.683000 -0.355530 1136.630000 0.412903
640.133000 0.961609 642.717000 -0.719910 645.783000 1.351930 842.317000 -0.294189 1136.720000 0.362854
645.783000 1.351930 650.600000 -0.510254 655.200000 0.567322 848.950000 -0.343018 1147.580000 0.975037
655.200000 0.567322 655.650000 -0.301208 664.567000 0.710144 860.400000 -0.359192 1155.920000 0.480042
664.567000 0.710144 664.967000 -0.107422 671.950000 0.585022 871.933000 -0.351257 1166.770000 0.501099
671.950000 0.585022 673.300000 0.427551 673.983000 1.017760 871.967000 -0.346680 0.000000 0.000000
673.983000 1.017760 674.400000 0.092773 676.483000 0.552063 874.883000 -0.064697 0.000000 0.000000
676.483000 0.552063 676.767000 0.499268 677.567000 0.573425 877.000000 -0.040894 0.000000 0.000000
677.567000 0.573425 682.917000 0.264893 683.467000 0.885315 883.117000 -0.355835 0.000000 0.000000
683.467000 0.885315 683.900000 -0.084534 692.967000 0.715942 888.167000 -0.166321 0.000000 0.000000
692.967000 0.715942 693.383000 -0.156860 702.317000 0.542603 894.117000 -0.395508 0.000000 0.000000
702.317000 0.542603 702.767000 -0.263062 711.567000 0.692444 904.850000 -0.437317 0.000000 0.000000
711.567000 0.692444 730.400000 -1.151430 748.600000 0.664062 916.067000 -0.529175 0.000000 0.000000
748.600000 0.664062 749.033000 -0.201416 758.050000 0.731506 953.733000 -0.477600 0.000000 0.000000
758.050000 0.731506 758.467000 -0.109863 767.833000 0.758972 967.117000 -0.391541 0.000000 0.000000
767.833000 0.758972 768.250000 -0.048523 777.733000 0.747375 972.567000 -0.116882 0.000000 0.000000
777.733000 0.747375 778.183000 -0.110168 787.917000 0.776672 980.783000 -0.446777 0.000000 0.000000
787.917000 0.776672 788.317000 -0.206909 798.850000 0.617676 994.267000 -0.408936 0.000000 0.000000
798.850000 0.617676 799.283000 -0.264893 810.867000 0.552673 1007.430000 -0.430908 0.000000 0.000000
810.867000 0.552673 811.317000 -0.332336 823.533000 0.617065 1020.480000 -0.438843 0.000000 0.000000
823.533000 0.617065 860.400000 -0.359192 871.517000 0.551147 1033.920000 -0.449829 0.000000 0.000000
1073.780000 0.525818 1142.420000 -0.580750 1147.580000 0.975037 1312.200000 -1.694030 0.000000 0.000000
1147.580000 0.975037 1158.800000 -0.991516 1212.780000 0.712585 1362.270000 -0.476074 0.000000 0.000000
1212.780000 0.712585 1213.250000 -0.148315 1223.420000 0.728149 1420.880000 -0.421753 0.000000 0.000000
1223.420000 0.728149 1229.520000 -0.528564 1233.880000 1.412050 1433.850000 -0.446777 0.000000 0.000000
1233.880000 1.412050 1234.330000 0.469971 1234.650000 0.753174 1433.900000 -0.421143 0.000000 0.000000
1234.650000 0.753174 1244.830000 -1.141660 1265.480000 0.776062 1465.480000 -0.473022 0.000000 0.000000
1265.480000 0.776062 1265.930000 -0.118713 1275.850000 0.638123 1465.520000 -0.473328 0.000000 0.000000
1275.850000 0.638123 1286.900000 -0.447388 1297.350000 0.554504 1495.630000 -0.409546 0.000000 0.000000
1297.350000 0.554504 1305.330000 -1.127620 1308.250000 1.005860 1506.750000 -0.396423 0.000000 0.000000
1308.250000 1.005860 1312.200000 -1.694030 1317.430000 0.738220 1511.500000 -0.122070 0.000000 0.000000
1317.430000 0.738220 1317.730000 0.368958 1317.950000 0.577698 1517.450000 0.063477 0.000000 0.000000
1317.950000 0.577698 1318.220000 0.269775 1319.020000 0.904846 1518.230000 -0.420837 0.000000 0.000000
1319.020000 0.904846 1326.380000 -1.070560 1329.930000 1.763000 1523.520000 -0.126648 0.000000 0.000000
1329.930000 1.763000 1362.270000 -0.476074 1472.230000 0.542908 1592.600000 -0.458984 0.000000 0.000000
1560.980000 0.528259 1576.970000 -0.431519 1592.200000 0.595093 1731.000000 -0.431519 0.000000 0.000000
1592.200000 0.595093 1592.600000 -0.458984 1607.530000 0.540466 1793.680000 -0.435181 0.000000 0.000000
1607.530000 0.540466 1607.950000 -0.430298 1634.920000 0.556030 1816.750000 -0.417480 0.000000 0.000000
1634.920000 0.556030 1635.330000 -0.436401 1648.170000 0.575256 1840.700000 -0.419617 0.000000 0.000000
1648.170000 0.575256 1648.580000 -0.450134 1660.930000 0.555115 1853.220000 -0.411377 0.000000 0.000000
1660.930000 0.555115 1661.350000 -0.456238 1683.330000 0.561218 1866.250000 -0.420532 0.000000 0.000000
1683.330000 0.561218 1683.750000 -0.429993 1695.570000 0.554810 1892.550000 -0.414734 0.000000 0.000000
1695.570000 0.554810 1696.000000 -0.415649 1718.580000 0.578308 1905.800000 -0.406494 0.000000 0.000000
1718.580000 0.578308 1719.000000 -0.388489 1730.580000 0.589905 1929.950000 -10.000000 0.000000 0.000000
1730.580000 0.589905 1731.000000 -0.431519 1743.320000 0.594788 1930.600000 -10.000000 0.000000 0.000000
1743.320000 0.594788 1743.730000 -0.424500 1756.130000 0.579224 1948.780000 -10.000000 0.000000 0.000000
1756.130000 0.579224 1756.550000 -0.423584 1768.950000 0.580139 1963.450000 0.634766 0.000000 0.000000
1768.950000 0.580139 1769.370000 -0.417175 1781.220000 0.586853 1973.800000 0.503235 0.000000 0.000000
1781.220000 0.586853 1793.680000 -0.435181 1804.680000 0.545654 1994.550000 0.077210 0.000000 0.000000
1804.680000 0.545654 1805.120000 -0.402832 1816.330000 0.552979 2005.550000 -0.186462 0.000000 0.000000
1816.330000 0.552979 1816.750000 -0.417480 1828.000000 0.550842 2017.120000 -0.116272 0.000000 0.000000
1828.000000 0.550842 1828.420000 -0.411682 1840.280000 0.559998 2028.920000 -0.214233 0.000000 0.000000
1840.280000 0.559998 1840.700000 -0.419617 1865.830000 0.579529 2065.080000 -0.414124 0.000000 0.000000
1865.830000 0.579529 1866.250000 -0.420532 1878.970000 0.598450 2077.270000 -0.471191 0.000000 0.000000
1878.970000 0.598450 1879.370000 -0.416870 1892.130000 0.594482 2082.150000 -1.411440 0.000000 0.000000
1892.130000 0.594482 1892.550000 -0.414734 1905.380000 0.580139 2100.900000 -0.645752 0.000000 0.000000
1905.380000 0.580139 1905.800000 -0.406494 1918.350000 0.592957 2112.270000 -0.575562 0.000000 0.000000
1918.350000 0.592957 1918.770000 -0.406799 1927.030000 5.637210 2123.150000 -0.432434 0.000000 0.000000
1927.030000 5.637210 1929.950000 -10.000000 1934.200000 9.999690 2134.120000 -0.440063 0.000000 0.000000
1934.200000 9.999690 1948.780000 -10.000000 1957.300000 4.603580 2144.870000 -0.489502 0.000000 0.000000
1957.300000 4.603580 1973.800000 0.503235 1983.550000 1.293640 2178.200000 -0.499268 0.000000 0.000000
1983.550000 1.293640 1984.030000 0.301819 1987.070000 0.809326 2183.580000 -0.185547 0.000000 0.000000
1987.070000 0.809326 1990.200000 0.328674 1994.100000 1.111760 2189.330000 -0.534058 0.000000 0.000000
1994.100000 1.111760 1994.550000 0.077210 1995.000000 0.557861 2194.500000 -0.205078 0.000000 0.000000
1995.000000 0.557861 1995.180000 0.508728 1995.480000 0.594788 2195.100000 -0.172729 0.000000 0.000000
1995.480000 0.594788 1995.670000 0.523987 1996.220000 0.612488 2195.550000 -0.125732 0.000000 0.000000
1996.220000 0.612488 1996.570000 0.499573 1998.030000 0.692139 2196.700000 -0.133057 0.000000 0.000000
1998.030000 0.692139 2003.820000 0.285645 2005.120000 0.880737 2201.030000 -0.511169 0.000000 0.000000
2005.120000 0.880737 2005.550000 -0.186462 2016.680000 0.892334 2214.100000 -0.493774 0.000000 0.000000
2016.680000 0.892334 2017.120000 -0.116272 2028.520000 0.813599 2226.820000 -0.415649 0.000000 0.000000
2028.520000 0.813599 2028.920000 -0.214233 2040.380000 0.802612 2238.930000 -0.425415 0.000000 0.000000
2040.380000 0.802612 2040.830000 -0.169983 2052.550000 0.716553 2251.630000 -0.469666 0.000000 0.000000
2052.550000 0.716553 2053.000000 -0.291443 2064.630000 0.576782 2256.980000 -0.162964 0.000000 0.000000
2064.630000 0.576782 2082.150000 -1.411440 2093.130000 1.068120 2265.220000 -0.490417 0.000000 0.000000
2093.130000 1.068120 2095.900000 0.523376 2096.170000 0.552673 2293.150000 -0.087280 0.000000 0.000000
2096.170000 0.552673 2100.900000 -0.645752 2155.520000 0.709534 2332.630000 -0.492249 0.000000 0.000000
2155.520000 0.709534 2189.330000 -0.534058 2332.230000 0.544434 2396.970000 -0.449524 0.000000 0.000000
2332.230000 0.544434 2332.630000 -0.492249 2396.550000 0.561523 2540.950000 -0.423889 0.000000 0.000000
2396.550000 0.561523 2396.970000 -0.449524 2435.420000 0.591736 2632.920000 -0.451050 0.000000 0.000000
2435.420000 0.591736 2435.830000 -0.423279 2449.070000 0.560303 2645.650000 -0.378723 0.000000 0.000000
2449.070000 0.560303 2449.480000 -0.443115 2488.580000 0.590210 0.000000 0.000000 0.000000 0.000000
2488.580000 0.590210 2489.000000 -0.430298 2501.700000 0.602112 0.000000 0.000000 0.000000 0.000000
2501.700000 0.602112 2502.120000 -0.401611 2514.930000 0.551147 0.000000 0.000000 0.000000 0.000000
2514.930000 0.551147 2527.800000 -0.353394 2540.530000 0.581970 0.000000 0.000000 0.000000 0.000000
2540.530000 0.581970 2540.950000 -0.423889 2554.100000 0.584412 0.000000 0.000000 0.000000 0.000000
2554.100000 0.584412 2554.520000 -0.420837 2567.770000 0.568542 0.000000 0.000000 0.000000 0.000000
2567.770000 0.568542 2568.200000 -0.393677 2593.380000 0.545959 0.000000 0.000000 0.000000 0.000000
2593.380000 0.545959 2593.820000 -0.368958 2606.170000 0.551758 0.000000 0.000000 0.000000 0.000000
2606.170000 0.551758 2606.620000 -0.404968 2619.150000 0.566406 0.000000 0.000000 0.000000 0.000000
2619.150000 0.566406 2619.570000 -0.407715 2632.500000 0.577698 0.000000 0.000000 0.000000 0.000000
###END DATA WAVES
###BEGIN DATA HEARTBEAT
###END DATA HEARTBEAT
###BEGIN PAS
5.000000
###END PAS
