0;0.140686
1.66667E-05;0.138245
3.33333E-05;0.135498
5E-05;0.133362
6.66667E-05;0.132446
8.33333E-05;0.132446
0.0001;0.133667
0.000116667;0.135803
0.000133333;0.138245
0.00015;0.140686
0.000166667;0.143433
0.000183333;0.146484
0.0002;0.149536
0.000216667;0.152893
0.000233333;0.15625
0.00025;0.159912
0.000266667;0.163269
0.000283333;0.166321
0.0003;0.169373
0.000316667;0.172119
0.000333333;0.17395
0.00035;0.175476
0.000366667;0.175781
0.000383333;0.175781
0.0004;0.174866
0.000416667;0.17395
0.000433333;0.172729
0.00045;0.171204
0.000466667;0.169678
0.000483333;0.168152
0.0005;0.166626
0.000516667;0.16449
0.000533333;0.162659
0.00055;0.160828
0.000566667;0.159302
0.000583333;0.158386
0.0006;0.158081
0.000616667;0.158691
0.000633333;0.159912
0.00065;0.161438
0.000666667;0.163269
0.000683333;0.1651
0.0007;0.166626
0.000716667;0.168152
0.000733333;0.169678
0.00075;0.171204
0.000766667;0.17334
0.000783333;0.175476
0.0008;0.177612
0.000816667;0.178833
0.000833333;0.179138
0.00085;0.178528
0.000866667;0.177612
0.000883333;0.176392
0.0009;0.175171
0.000916667;0.17395
0.000933333;0.173035
0.00095;0.172119
0.000966667;0.170898
0.000983333;0.169373
0.001;0.167847
0.00101667;0.16571
0.00103333;0.163574
0.00105;0.160828
0.00106667;0.158691
0.00108333;0.15686
0.0011;0.155945
0.00111667;0.155945
0.00113333;0.156555
0.00115;0.157471
0.00116667;0.158081
0.00118333;0.158386
0.0012;0.158691
0.00121667;0.158997
0.00123333;0.159302
0.00125;0.159912
0.00126667;0.161133
0.00128333;0.162964
0.0013;0.1651
0.00131667;0.167236
0.00133333;0.169067
0.00135;0.170288
0.00136667;0.170288
0.00138333;0.169373
0.0014;0.167847
0.00141667;0.16571
0.00143333;0.163269
0.00145;0.160522
0.00146667;0.157471
0.00148333;0.155029
0.0015;0.153198
0.00151667;0.151672
0.00153333;0.150452
0.00155;0.149231
0.00156667;0.147705
0.00158333;0.145874
0.0016;0.144348
0.00161667;0.142822
0.00163333;0.142212
0.00165;0.141907
0.00166667;0.142517
0.00168333;0.143738
0.0017;0.145569
0.00171667;0.1474
0.00173333;0.149231
0.00175;0.150452
0.00176667;0.151672
0.00178333;0.152283
0.0018;0.152588
0.00181667;0.151978
0.00183333;0.150757
0.00185;0.148926
0.00186667;0.1474
0.00188333;0.145874
0.0019;0.144958
0.00191667;0.143738
0.00193333;0.142212
0.00195;0.139771
0.00196667;0.136414
0.00198333;0.132446
0.002;0.128784
0.00201667;0.125732
0.00203333;0.123901
0.00205;0.122986
0.00206667;0.122986
0.00208333;0.123596
0.0021;0.124817
0.00211667;0.126038
0.00213333;0.127563
0.00215;0.129089
0.00216667;0.13092
0.00218333;0.133057
0.0022;0.135498
0.00221667;0.138245
0.00223333;0.141296
0.00225;0.144043
0.00226667;0.14679
0.00228333;0.149231
0.0023;0.151367
0.00231667;0.153198
0.00233333;0.154724
0.00235;0.155945
0.00236667;0.157471
0.00238333;0.158691
0.0024;0.159912
0.00241667;0.160522
0.00243333;0.161133
0.00245;0.161438
0.00246667;0.161438
0.00248333;0.161438
0.0025;0.161438
0.00251667;0.161133
0.00253333;0.160522
0.00255;0.158997
0.00256667;0.15686
0.00258333;0.154724
0.0026;0.152283
0.00261667;0.149841
0.00263333;0.1474
0.00265;0.144348
0.00266667;0.140381
0.00268333;0.135803
0.0027;0.131226
0.00271667;0.126648
0.00273333;0.122681
0.00275;0.119019
0.00276667;0.116272
0.00278333;0.113525
0.0028;0.111084
0.00281667;0.108643
0.00283333;0.105896
0.00285;0.102844
0.00286667;0.0997925
0.00288333;0.0967407
0.0029;0.093689
0.00291667;0.0906372
0.00293333;0.0875854
0.00295;0.0848389
0.00296667;0.0820923
0.00298333;0.0790405
0.003;0.0756836
0.00301667;0.0720215
0.00303333;0.0686646
0.00305;0.0662231
0.00306667;0.0643921
0.00308333;0.062561
0.0031;0.0604248
0.00311667;0.0576782
0.00313333;0.0549316
0.00315;0.0521851
0.00316667;0.0494385
0.00318333;0.0469971
0.0032;0.0448608
0.00321667;0.043335
0.00323333;0.0418091
0.00325;0.0411987
0.00326667;0.0408936
0.00328333;0.0405884
0.0033;0.0405884
0.00331667;0.0402832
0.00333333;0.0402832
0.00335;0.0402832
0.00336667;0.0402832
0.00338333;0.0402832
0.0034;0.039978
0.00341667;0.0393677
0.00343333;0.0384521
0.00345;0.0372314
0.00346667;0.0350952
0.00348333;0.0326538
0.0035;0.0299072
0.00351667;0.0274658
0.00353333;0.0250244
0.00355;0.0231934
0.00356667;0.0219727
0.00358333;0.0216675
0.0036;0.0210571
0.00361667;0.0204468
0.00363333;0.0189209
0.00365;0.017395
0.00366667;0.0152588
0.00368333;0.0134277
0.0037;0.0119019
0.00371667;0.0112915
0.00373333;0.0119019
0.00375;0.0134277
0.00376667;0.0152588
0.00378333;0.0167847
0.0038;0.017395
0.00381667;0.017395
0.00383333;0.017395
0.00385;0.0180054
0.00386667;0.0189209
0.00388333;0.0204468
0.0039;0.0222778
0.00391667;0.0244141
0.00393333;0.0274658
0.00395;0.0308228
0.00396667;0.0338745
0.00398333;0.0366211
0.004;0.0387573
0.00401667;0.0402832
0.00403333;0.0415039
0.00405;0.0430298
0.00406667;0.0445557
0.00408333;0.0466919
0.0041;0.0485229
0.00411667;0.0500488
0.00413333;0.0509644
0.00415;0.0512695
0.00416667;0.0512695
0.00418333;0.0506592
0.0042;0.0497437
0.00421667;0.0488281
0.00423333;0.0476074
0.00425;0.0463867
0.00426667;0.0448608
0.00428333;0.0436401
0.0043;0.0427246
0.00431667;0.0421143
0.00433333;0.0427246
0.00435;0.0439453
0.00436667;0.0463867
0.00438333;0.0497437
0.0044;0.0540161
0.00441667;0.0588989
0.00443333;0.0640869
0.00445;0.0695801
0.00446667;0.0756836
0.00448333;0.0827026
0.0045;0.0909424
0.00451667;0.100708
0.00453333;0.111694
0.00455;0.124207
0.00456667;0.137939
0.00458333;0.152588
0.0046;0.167542
0.00461667;0.182495
0.00463333;0.197754
0.00465;0.213623
0.00466667;0.231018
0.00468333;0.249634
0.0047;0.26947
0.00471667;0.290833
0.00473333;0.31311
0.00475;0.335693
0.00476667;0.359497
0.00478333;0.384827
0.0048;0.411987
0.00481667;0.440674
0.00483333;0.469666
0.00485;0.497131
0.00486667;0.521851
0.00488333;0.541687
0.0049;0.55603
0.00491667;0.564575
0.00493333;0.567322
0.00495;0.565186
0.00496667;0.558777
0.00498333;0.548096
0.005;0.532227
0.00501667;0.510559
0.00503333;0.482178
0.00505;0.446167
0.00506667;0.402832
0.00508333;0.352478
0.0051;0.296326
0.00511667;0.235596
0.00513333;0.172424
0.00515;0.108032
0.00516667;0.0436401
0.00518333;-0.0195312
0.0052;-0.0805664
0.00521667;-0.137939
0.00523333;-0.19104
0.00525;-0.238953
0.00526667;-0.281067
0.00528333;-0.317078
0.0053;-0.346069
0.00531667;-0.368042
0.00533333;-0.382385
0.00535;-0.389099
0.00536667;-0.388489
0.00538333;-0.381165
0.0054;-0.367737
0.00541667;-0.348816
0.00543333;-0.325928
0.00545;-0.299377
0.00546667;-0.270691
0.00548333;-0.240784
0.0055;-0.209656
0.00551667;-0.178833
0.00553333;-0.148926
0.00555;-0.120239
0.00556667;-0.0933838
0.00558333;-0.0689697
0.0056;-0.0466919
0.00561667;-0.0271606
0.00563333;-0.0106812
0.00565;0.00335693
0.00566667;0.0149536
0.00568333;0.0238037
0.0057;0.0305176
0.00571667;0.03479
0.00573333;0.0366211
0.00575;0.0366211
0.00576667;0.0350952
0.00578333;0.0320435
0.0058;0.0286865
0.00581667;0.0253296
0.00583333;0.0216675
0.00585;0.0183105
0.00586667;0.0146484
0.00588333;0.0109863
0.0059;0.00732422
0.00591667;0.00366211
0.00593333;0
0.00595;-0.00366211
0.00596667;-0.00762939
0.00598333;-0.0112915
0.006;-0.0140381
0.00601667;-0.0152588
0.00603333;-0.0146484
0.00605;-0.0128174
0.00606667;-0.010376
0.00608333;-0.00793457
0.0061;-0.00549316
0.00611667;-0.00305176
0.00613333;-0.000610352
0.00615;0.00152588
0.00616667;0.00427246
0.00618333;0.00701904
0.0062;0.0100708
0.00621667;0.0134277
0.00623333;0.0167847
0.00625;0.0195312
0.00626667;0.022583
0.00628333;0.0250244
0.0063;0.0271606
0.00631667;0.0289917
0.00633333;0.0302124
0.00635;0.0311279
0.00636667;0.0311279
0.00638333;0.0308228
0.0064;0.0299072
0.00641667;0.0283813
0.00643333;0.0268555
0.00645;0.0256348
0.00646667;0.0250244
0.00648333;0.0247192
0.0065;0.0244141
0.00651667;0.0244141
0.00653333;0.0244141
0.00655;0.0250244
0.00656667;0.0259399
0.00658333;0.0271606
0.0066;0.0283813
0.00661667;0.0292969
0.00663333;0.0296021
0.00665;0.0296021
0.00666667;0.0292969
0.00668333;0.0286865
0.0067;0.0283813
0.00671667;0.0280762
0.00673333;0.027771
0.00675;0.0271606
0.00676667;0.0262451
0.00678333;0.0247192
0.0068;0.022583
0.00681667;0.0201416
0.00683333;0.017395
0.00685;0.0146484
0.00686667;0.0128174
0.00688333;0.0119019
0.0069;0.0119019
0.00691667;0.0134277
0.00693333;0.0152588
0.00695;0.0180054
0.00696667;0.0210571
0.00698333;0.0241089
0.007;0.0268555
0.00701667;0.0289917
0.00703333;0.0308228
0.00705;0.0320435
0.00706667;0.032959
0.00708333;0.0341797
0.0071;0.0357056
0.00711667;0.038147
0.00713333;0.0405884
0.00715;0.0430298
0.00716667;0.0448608
0.00718333;0.0463867
0.0072;0.0473022
0.00721667;0.0473022
0.00723333;0.0469971
0.00725;0.0463867
0.00726667;0.0457764
0.00728333;0.0448608
0.0073;0.0445557
0.00731667;0.0445557
0.00733333;0.0448608
0.00735;0.0457764
0.00736667;0.0469971
0.00738333;0.0479126
0.0074;0.0494385
0.00741667;0.0509644
0.00743333;0.0524902
0.00745;0.0540161
0.00746667;0.0552368
0.00748333;0.0558472
0.0075;0.0561523
0.00751667;0.0558472
0.00753333;0.0552368
0.00755;0.0546265
0.00756667;0.0540161
0.00758333;0.0537109
0.0076;0.0531006
0.00761667;0.0531006
0.00763333;0.0531006
0.00765;0.0534058
0.00766667;0.0537109
0.00768333;0.0537109
0.0077;0.0534058
0.00771667;0.0531006
0.00773333;0.0534058
0.00775;0.0540161
0.00776667;0.0549316
0.00778333;0.0558472
0.0078;0.0564575
0.00781667;0.0570679
0.00783333;0.0582886
0.00785;0.0601196
0.00786667;0.0622559
0.00788333;0.0646973
0.0079;0.0671387
0.00791667;0.0695801
0.00793333;0.0714111
0.00795;0.0735474
0.00796667;0.0753784
0.00798333;0.0772095
0.008;0.0790405
0.00801667;0.0805664
0.00803333;0.0817871
0.00805;0.0823975
0.00806667;0.0823975
0.00808333;0.0823975
0.0081;0.0823975
0.00811667;0.0823975
0.00813333;0.0830078
0.00815;0.0836182
0.00816667;0.0848389
0.00818333;0.0857544
0.0082;0.0863647
0.00821667;0.0863647
0.00823333;0.0854492
0.00825;0.0845337
0.00826667;0.0836182
0.00828333;0.0827026
0.0083;0.0814819
0.00831667;0.0799561
0.00833333;0.0784302
0.00835;0.0772095
0.00836667;0.0769043
0.00838333;0.0772095
0.0084;0.078125
0.00841667;0.0793457
0.00843333;0.0808716
0.00845;0.0830078
0.00846667;0.0854492
0.00848333;0.0881958
0.0085;0.0909424
0.00851667;0.0933838
0.00853333;0.0958252
0.00855;0.0982666
0.00856667;0.100403
0.00858333;0.102844
0.0086;0.105286
0.00861667;0.107422
0.00863333;0.109253
0.00865;0.110779
0.00866667;0.111389
0.00868333;0.111694
0.0087;0.111389
0.00871667;0.110474
0.00873333;0.109253
0.00875;0.107422
0.00876667;0.105591
0.00878333;0.102844
0.0088;0.100098
0.00881667;0.0970459
0.00883333;0.0939941
0.00885;0.0912476
0.00886667;0.0888062
0.00888333;0.0872803
0.0089;0.0863647
0.00891667;0.0860596
0.00893333;0.0857544
0.00895;0.085144
0.00896667;0.0842285
0.00898333;0.0823975
0.009;0.0802612
0.00901667;0.078125
0.00903333;0.0769043
0.00905;0.0769043
0.00906667;0.078125
0.00908333;0.0799561
0.0091;0.0820923
0.00911667;0.0836182
0.00913333;0.0839233
0.00915;0.0836182
0.00916667;0.0827026
0.00918333;0.0811768
0.0092;0.0796509
0.00921667;0.078125
0.00923333;0.0765991
0.00925;0.0747681
0.00926667;0.072937
0.00928333;0.0701904
0.0093;0.0671387
0.00931667;0.0634766
0.00933333;0.0595093
0.00935;0.055542
0.00936667;0.0515747
0.00938333;0.0476074
0.0094;0.0436401
0.00941667;0.0390625
0.00943333;0.0341797
0.00945;0.0289917
0.00946667;0.0234985
0.00948333;0.0177002
0.0095;0.0115967
0.00951667;0.00518799
0.00953333;-0.000915527
0.00955;-0.00701904
0.00956667;-0.012207
0.00958333;-0.0167847
0.0096;-0.0201416
0.00961667;-0.0228882
0.00963333;-0.0253296
0.00965;-0.0271606
0.00966667;-0.0292969
0.00968333;-0.0314331
0.0097;-0.0341797
0.00971667;-0.0366211
0.00973333;-0.0393677
0.00975;-0.0421143
0.00976667;-0.045166
0.00978333;-0.0485229
0.0098;-0.0524902
0.00981667;-0.057373
0.00983333;-0.0631714
0.00985;-0.0698853
0.00986667;-0.0772095
0.00988333;-0.0842285
0.0099;-0.090332
0.00991667;-0.0952148
0.00993333;-0.098877
0.00995;-0.101624
0.00996667;-0.10376
0.00998333;-0.105896
0.01;-0.108032
0.0100167;-0.110168
0.0100333;-0.11261
0.01005;-0.115051
0.0100667;-0.117188
0.0100833;-0.118408
0.0101;-0.118103
0.0101167;-0.116577
0.0101333;-0.114136
0.01015;-0.111694
0.0101667;-0.109863
0.0101833;-0.108643
0.0102;-0.107422
0.0102167;-0.106201
0.0102333;-0.104675
0.01025;-0.103455
0.0102667;-0.101929
0.0102833;-0.101013
0.0103;-0.100098
0.0103167;-0.100098
0.0103333;-0.101013
0.01035;-0.102844
0.0103667;-0.10498
0.0103833;-0.107117
0.0104;-0.109253
0.0104167;-0.111389
0.0104333;-0.114136
0.01045;-0.116577
0.0104667;-0.119324
0.0104833;-0.121765
0.0105;-0.123596
0.0105167;-0.125122
0.0105333;-0.126038
0.01055;-0.127258
0.0105667;-0.128479
0.0105833;-0.130005
0.0106;-0.131531
0.0106167;-0.132141
0.0106333;-0.131836
0.01065;-0.13031
0.0106667;-0.128479
0.0106833;-0.126343
0.0107;-0.124207
0.0107167;-0.121765
0.0107333;-0.118713
0.01075;-0.115356
0.0107667;-0.111694
0.0107833;-0.108643
0.0108;-0.105591
0.0108167;-0.103455
0.0108333;-0.101624
0.01085;-0.100708
0.0108667;-0.100708
0.0108833;-0.101013
0.0109;-0.101624
0.0109167;-0.102234
0.0109333;-0.103149
0.01095;-0.104065
0.0109667;-0.105286
0.0109833;-0.106812
0.011;-0.108643
0.0110167;-0.111084
0.0110333;-0.114441
0.01105;-0.118408
0.0110667;-0.122681
0.0110833;-0.126953
0.0111;-0.13092
0.0111167;-0.133972
0.0111333;-0.135803
0.01115;-0.135803
0.0111667;-0.134583
0.0111833;-0.132141
0.0112;-0.129395
0.0112167;-0.126648
0.0112333;-0.123901
0.01125;-0.12146
0.0112667;-0.119324
0.0112833;-0.117798
0.0113;-0.116577
0.0113167;-0.115967
0.0113333;-0.115356
0.01135;-0.114746
0.0113667;-0.114136
0.0113833;-0.113525
0.0114;-0.112915
0.0114167;-0.11261
0.0114333;-0.112305
0.01145;-0.112305
0.0114667;-0.112
0.0114833;-0.112
0.0115;-0.112305
0.0115167;-0.112915
0.0115333;-0.114136
0.01155;-0.115051
0.0115667;-0.115967
0.0115833;-0.116577
0.0116;-0.116577
0.0116167;-0.115967
0.0116333;-0.115356
0.01165;-0.113831
0.0116667;-0.112
0.0116833;-0.110474
0.0117;-0.108643
0.0117167;-0.107117
0.0117333;-0.10498
0.01175;-0.102539
0.0117667;-0.0994873
0.0117833;-0.0961304
0.0118;-0.0927734
0.0118167;-0.0900269
0.0118333;-0.0881958
0.01185;-0.0872803
0.0118667;-0.0872803
0.0118833;-0.0881958
0.0119;-0.0900269
0.0119167;-0.0927734
0.0119333;-0.0964355
0.01195;-0.100708
0.0119667;-0.10498
0.0119833;-0.108948
0.012;-0.112
0.0120167;-0.113831
0.0120333;-0.115356
0.01205;-0.115967
0.0120667;-0.115967
0.0120833;-0.115967
0.0121;-0.115662
0.0121167;-0.115356
0.0121333;-0.115051
0.01215;-0.115051
0.0121667;-0.115051
0.0121833;-0.114136
0.0122;-0.11261
0.0122167;-0.109863
0.0122333;-0.105896
0.01225;-0.101318
0.0122667;-0.0958252
0.0122833;-0.090332
0.0123;-0.0845337
0.0123167;-0.0796509
0.0123333;-0.0756836
0.01235;-0.0732422
0.0123667;-0.0720215
0.0123833;-0.0723267
0.0124;-0.0732422
0.0124167;-0.0750732
0.0124333;-0.0775146
0.01245;-0.0802612
0.0124667;-0.0830078
0.0124833;-0.0857544
0.0125;-0.088501
0.0125167;-0.0912476
0.0125333;-0.0939941
0.01255;-0.0967407
0.0125667;-0.098877
0.0125833;-0.101318
0.0126;-0.10376
0.0126167;-0.106506
0.0126333;-0.108948
0.01265;-0.111389
0.0126667;-0.11322
0.0126833;-0.114746
0.0127;-0.115662
0.0127167;-0.115967
0.0127333;-0.115051
0.01275;-0.113525
0.0127667;-0.111694
0.0127833;-0.109558
0.0128;-0.107117
0.0128167;-0.104065
0.0128333;-0.101013
0.01285;-0.0982666
0.0128667;-0.09552
0.0128833;-0.0930786
0.0129;-0.0912476
0.0129167;-0.0897217
0.0129333;-0.0881958
0.01295;-0.0869751
0.0129667;-0.0854492
0.0129833;-0.0836182
0.013;-0.0814819
0.0130167;-0.0799561
0.0130333;-0.0790405
0.01305;-0.0793457
0.0130667;-0.0802612
0.0130833;-0.0814819
0.0131;-0.0827026
0.0131167;-0.083313
0.0131333;-0.0839233
0.01315;-0.0839233
0.0131667;-0.0836182
0.0131833;-0.0827026
0.0132;-0.0814819
0.0132167;-0.0802612
0.0132333;-0.0796509
0.01325;-0.0793457
0.0132667;-0.0799561
0.0132833;-0.0805664
0.0133;-0.0808716
0.0133167;-0.0802612
0.0133333;-0.0784302
0.01335;-0.0759888
0.0133667;-0.0732422
0.0133833;-0.0701904
0.0134;-0.0674438
0.0134167;-0.0650024
0.0134333;-0.062561
0.01345;-0.0604248
0.0134667;-0.0582886
0.0134833;-0.0564575
0.0135;-0.0543213
0.0135167;-0.0524902
0.0135333;-0.0509644
0.01355;-0.0494385
0.0135667;-0.0485229
0.0135833;-0.0476074
0.0136;-0.0469971
0.0136167;-0.0466919
0.0136333;-0.0466919
0.01365;-0.0463867
0.0136667;-0.0460815
0.0136833;-0.0460815
0.0137;-0.0463867
0.0137167;-0.0469971
0.0137333;-0.0479126
0.01375;-0.0488281
0.0137667;-0.0497437
0.0137833;-0.050354
0.0138;-0.050354
0.0138167;-0.0500488
0.0138333;-0.0500488
0.01385;-0.0497437
0.0138667;-0.0488281
0.0138833;-0.0479126
0.0139;-0.0460815
0.0139167;-0.0436401
0.0139333;-0.0408936
0.01395;-0.0372314
0.0139667;-0.0332642
0.0139833;-0.0289917
0.014;-0.0244141
0.0140167;-0.0201416
0.0140333;-0.0158691
0.01405;-0.0119019
0.0140667;-0.00793457
0.0140833;-0.00427246
0.0141;-0.000915527
0.0141167;0.00152588
0.0141333;0.00305176
0.01415;0.00335693
0.0141667;0.00244141
0.0141833;0.000610352
0.0142;-0.000915527
0.0142167;-0.00183105
0.0142333;-0.00152588
0.01425;-0.000915527
0.0142667;0.000305176
0.0142833;0.00183105
0.0143;0.00274658
0.0143167;0.00366211
0.0143333;0.00396729
0.01435;0.00457764
0.0143667;0.00488281
0.0143833;0.00518799
0.0144;0.00549316
0.0144167;0.00579834
0.0144333;0.00640869
0.01445;0.00701904
0.0144667;0.00762939
0.0144833;0.00793457
0.0145;0.00793457
0.0145167;0.00793457
0.0145333;0.00701904
0.01455;0.00579834
0.0145667;0.00366211
0.0145833;0.000915527
0.0146;-0.00274658
0.0146167;-0.00671387
0.0146333;-0.0109863
0.01465;-0.0152588
0.0146667;-0.0198364
0.0146833;-0.0238037
0.0147;-0.027771
0.0147167;-0.0317383
0.0147333;-0.0357056
0.01475;-0.0390625
0.0147667;-0.0418091
0.0147833;-0.0439453
0.0148;-0.0457764
0.0148167;-0.0469971
0.0148333;-0.0479126
0.01485;-0.0485229
0.0148667;-0.0485229
0.0148833;-0.0479126
0.0149;-0.0469971
0.0149167;-0.0457764
0.0149333;-0.0442505
0.01495;-0.0430298
0.0149667;-0.0424194
0.0149833;-0.0418091
0.015;-0.0418091
0.0150167;-0.0421143
0.0150333;-0.0427246
0.01505;-0.0430298
0.0150667;-0.0436401
0.0150833;-0.0442505
0.0151;-0.0448608
0.0151167;-0.0457764
0.0151333;-0.0463867
0.01515;-0.0460815
0.0151667;-0.045166
0.0151833;-0.043335
0.0152;-0.0411987
0.0152167;-0.0390625
0.0152333;-0.0366211
0.01525;-0.03479
0.0152667;-0.0338745
0.0152833;-0.0332642
0.0153;-0.0332642
0.0153167;-0.0332642
0.0153333;-0.032959
0.01535;-0.0326538
0.0153667;-0.0323486
0.0153833;-0.0314331
0.0154;-0.0302124
0.0154167;-0.0289917
0.0154333;-0.0274658
0.01545;-0.0259399
0.0154667;-0.0244141
0.0154833;-0.0234985
0.0155;-0.0231934
0.0155167;-0.0231934
0.0155333;-0.0238037
0.01555;-0.0247192
0.0155667;-0.0262451
0.0155833;-0.0274658
0.0156;-0.0280762
0.0156167;-0.0286865
0.0156333;-0.0286865
0.01565;-0.0286865
0.0156667;-0.0286865
0.0156833;-0.0286865
0.0157;-0.0283813
0.0157167;-0.0283813
0.0157333;-0.0283813
0.01575;-0.0283813
0.0157667;-0.0283813
0.0157833;-0.0286865
0.0158;-0.0292969
0.0158167;-0.0305176
0.0158333;-0.0326538
0.01585;-0.0357056
0.0158667;-0.0384521
0.0158833;-0.0415039
0.0159;-0.0439453
0.0159167;-0.0457764
0.0159333;-0.0473022
0.01595;-0.0485229
0.0159667;-0.0491333
0.0159833;-0.0491333
0.016;-0.0488281
0.0160167;-0.0473022
0.0160333;-0.045166
0.01605;-0.0424194
0.0160667;-0.0387573
0.0160833;-0.0350952
0.0161;-0.0311279
0.0161167;-0.0271606
0.0161333;-0.0228882
0.01615;-0.0177002
0.0161667;-0.0115967
0.0161833;-0.00518799
0.0162;0.00213623
0.0162167;0.0106812
0.0162333;0.020752
0.01625;0.0317383
0.0162667;0.0436401
0.0162833;0.0567627
0.0163;0.0708008
0.0163167;0.0860596
0.0163333;0.102234
0.01635;0.119934
0.0163667;0.138855
0.0163833;0.158997
0.0164;0.180664
0.0164167;0.203247
0.0164333;0.226746
0.01645;0.252075
0.0164667;0.279236
0.0164833;0.307922
0.0165;0.33844
0.0165167;0.369873
0.0165333;0.401611
0.01655;0.431824
0.0165667;0.458374
0.0165833;0.480652
0.0166;0.496826
0.0166167;0.507202
0.0166333;0.511475
0.01665;0.510254
0.0166667;0.50415
0.0166833;0.493164
0.0167;0.477295
0.0167167;0.455933
0.0167333;0.428467
0.01675;0.393982
0.0167667;0.352478
0.0167833;0.30426
0.0168;0.249634
0.0168167;0.190125
0.0168333;0.126953
0.01685;0.0622559
0.0168667;-0.00213623
0.0168833;-0.0646973
0.0169;-0.124207
0.0169167;-0.179749
0.0169333;-0.231323
0.01695;-0.278015
0.0169667;-0.320129
0.0169833;-0.35675
0.017;-0.387573
0.0170167;-0.411987
0.0170333;-0.429382
0.01705;-0.440369
0.0170667;-0.444031
0.0170833;-0.441284
0.0171;-0.432129
0.0171167;-0.41748
0.0171333;-0.397949
0.01715;-0.374451
0.0171667;-0.348206
0.0171833;-0.320435
0.0172;-0.292053
0.0172167;-0.263977
0.0172333;-0.236206
0.01725;-0.209351
0.0172667;-0.183716
0.0172833;-0.159607
0.0173;-0.137939
0.0173167;-0.119324
0.0173333;-0.10376
0.01735;-0.0912476
0.0173667;-0.0814819
0.0173833;-0.0735474
0.0174;-0.0671387
0.0174167;-0.0622559
0.0174333;-0.0588989
0.01745;-0.0570679
0.0174667;-0.0567627
0.0174833;-0.0576782
0.0175;-0.0595093
0.0175167;-0.0622559
0.0175333;-0.0650024
0.01755;-0.0671387
0.0175667;-0.0686646
0.0175833;-0.0692749
0.0176;-0.0689697
0.0176167;-0.067749
0.0176333;-0.0662231
0.01765;-0.0643921
0.0176667;-0.0622559
0.0176833;-0.0604248
0.0177;-0.0585938
0.0177167;-0.0567627
0.0177333;-0.0549316
0.01775;-0.0531006
0.0177667;-0.0512695
0.0177833;-0.0500488
0.0178;-0.0494385
0.0178167;-0.0497437
0.0178333;-0.0512695
0.01785;-0.0534058
0.0178667;-0.0558472
0.0178833;-0.0579834
0.0179;-0.0598145
0.0179167;-0.0613403
0.0179333;-0.0622559
0.01795;-0.0628662
0.0179667;-0.0631714
0.0179833;-0.0637817
0.018;-0.0646973
0.0180167;-0.0656128
0.0180333;-0.065918
0.01805;-0.065918
0.0180667;-0.0656128
0.0180833;-0.0650024
0.0181;-0.0643921
0.0181167;-0.0631714
0.0181333;-0.0613403
0.01815;-0.0585938
0.0181667;-0.055542
0.0181833;-0.0524902
0.0182;-0.0497437
0.0182167;-0.0476074
0.0182333;-0.0454712
0.01825;-0.0436401
0.0182667;-0.0421143
0.0182833;-0.0408936
0.0183;-0.0405884
0.0183167;-0.0411987
0.0183333;-0.0424194
0.01835;-0.0442505
0.0183667;-0.0463867
0.0183833;-0.0488281
0.0184;-0.0512695
0.0184167;-0.0540161
0.0184333;-0.0561523
0.01845;-0.0579834
0.0184667;-0.0585938
0.0184833;-0.0588989
0.0185;-0.0585938
0.0185167;-0.0582886
0.0185333;-0.0579834
0.01855;-0.0579834
0.0185667;-0.0579834
0.0185833;-0.0579834
0.0186;-0.0576782
0.0186167;-0.0564575
0.0186333;-0.0543213
0.01865;-0.0518799
0.0186667;-0.0494385
0.0186833;-0.0466919
0.0187;-0.0445557
0.0187167;-0.0418091
0.0187333;-0.0390625
0.01875;-0.0357056
0.0187667;-0.0323486
0.0187833;-0.0286865
0.0188;-0.0253296
0.0188167;-0.0222778
0.0188333;-0.0198364
0.01885;-0.0180054
0.0188667;-0.0170898
0.0188833;-0.0167847
0.0189;-0.0180054
0.0189167;-0.0195312
0.0189333;-0.0219727
0.01895;-0.0244141
0.0189667;-0.0256348
0.0189833;-0.0253296
0.019;-0.0241089
0.0190167;-0.022583
0.0190333;-0.0213623
0.01905;-0.0210571
0.0190667;-0.020752
0.0190833;-0.020752
0.0191;-0.0204468
0.0191167;-0.0195312
0.0191333;-0.0167847
0.01915;-0.0131226
0.0191667;-0.00854492
0.0191833;-0.00366211
0.0192;0.00183105
0.0192167;0.00701904
0.0192333;0.012207
0.01925;0.0167847
0.0192667;0.020752
0.0192833;0.0244141
0.0193;0.027771
0.0193167;0.0311279
0.0193333;0.0341797
0.01935;0.0372314
0.0193667;0.039978
0.0193833;0.0421143
0.0194;0.0442505
0.0194167;0.0457764
0.0194333;0.0466919
0.01945;0.0463867
0.0194667;0.0445557
0.0194833;0.0421143
0.0195;0.0396729
0.0195167;0.0378418
0.0195333;0.0363159
0.01955;0.0357056
0.0195667;0.0350952
0.0195833;0.0350952
0.0196;0.0350952
0.0196167;0.0354004
0.0196333;0.0360107
0.01965;0.0369263
0.0196667;0.0375366
0.0196833;0.038147
0.0197;0.0384521
0.0197167;0.0390625
0.0197333;0.0396729
0.01975;0.0408936
0.0197667;0.0424194
0.0197833;0.0445557
0.0198;0.0469971
0.0198167;0.0494385
0.0198333;0.0515747
0.01985;0.0537109
0.0198667;0.055542
0.0198833;0.057373
0.0199;0.0598145
0.0199167;0.0619507
0.0199333;0.0640869
0.01995;0.065918
0.0199667;0.0674438
0.0199833;0.0689697
0.02;0.0698853
0.0200167;0.071106
0.0200333;0.072937
0.02005;0.0750732
0.0200667;0.0775146
0.0200833;0.0799561
0.0201;0.0820923
0.0201167;0.0839233
0.0201333;0.085144
0.02015;0.0860596
0.0201667;0.0863647
0.0201833;0.0866699
0.0202;0.0869751
0.0202167;0.0869751
0.0202333;0.0875854
0.02025;0.088501
0.0202667;0.0894165
0.0202833;0.090332
0.0203;0.0915527
0.0203167;0.0924683
0.0203333;0.093689
0.02035;0.0949097
0.0203667;0.0964355
0.0203833;0.0976562
0.0204;0.0991821
0.0204167;0.100098
0.0204333;0.100708
0.02045;0.101318
0.0204667;0.101624
0.0204833;0.101624
0.0205;0.101929
0.0205167;0.102539
0.0205333;0.102844
0.02055;0.103455
0.0205667;0.103455
0.0205833;0.102844
0.0206;0.102539
0.0206167;0.102539
0.0206333;0.103149
0.02065;0.104675
0.0206667;0.106506
0.0206833;0.108948
0.0207;0.111694
0.0207167;0.114136
0.0207333;0.116882
0.02075;0.119019
0.0207667;0.121155
0.0207833;0.122681
0.0208;0.123901
0.0208167;0.124817
0.0208333;0.126038
0.02085;0.127258
0.0208667;0.128479
0.0208833;0.129395
0.0209;0.129395
0.0209167;0.128479
0.0209333;0.126038
0.02095;0.12207
0.0209667;0.116882
0.0209833;0.111084
0.021;0.10498
0.0210167;0.098877
0.0210333;0.0930786
0.02105;0.0878906
0.0210667;0.0830078
0.0210833;0.078125
0.0211;0.0732422
0.0211167;0.0683594
0.0211333;0.0643921
0.02115;0.0610352
0.0211667;0.0585938
0.0211833;0.0570679
0.0212;0.0561523
0.0212167;0.055542
0.0212333;0.055542
0.02125;0.0558472
0.0212667;0.0561523
0.0212833;0.0561523
0.0213;0.0561523
0.0213167;0.0561523
0.0213333;0.0564575
0.02135;0.0570679
0.0213667;0.0576782
0.0213833;0.0576782
0.0214;0.0564575
0.0214167;0.0540161
0.0214333;0.0509644
0.02145;0.0479126
0.0214667;0.0448608
0.0214833;0.0421143
0.0215;0.0390625
0.0215167;0.0360107
0.0215333;0.0323486
0.02155;0.0286865
0.0215667;0.0241089
0.0215833;0.0189209
0.0216;0.0128174
0.0216167;0.00640869
0.0216333;0.000305176
0.02165;-0.00488281
0.0216667;-0.0088501
0.0216833;-0.0106812
0.0217;-0.0115967
0.0217167;-0.0119019
0.0217333;-0.0119019
0.02175;-0.012207
0.0217667;-0.0125122
0.0217833;-0.0128174
0.0218;-0.0131226
0.0218167;-0.0131226
0.0218333;-0.0131226
0.02185;-0.0128174
0.0218667;-0.0128174
0.0218833;-0.012207
0.0219;-0.0119019
0.0219167;-0.0112915
0.0219333;-0.0106812
0.02195;-0.00946045
0.0219667;-0.00823975
0.0219833;-0.00732422
0.022;-0.00701904
0.0220167;-0.00762939
0.0220333;-0.00946045
0.02205;-0.012207
0.0220667;-0.015564
0.0220833;-0.0192261
0.0221;-0.0228882
0.0221167;-0.0256348
0.0221333;-0.027771
0.02215;-0.0289917
0.0221667;-0.0292969
0.0221833;-0.0280762
0.0222;-0.0259399
0.0222167;-0.0231934
0.0222333;-0.0204468
0.02225;-0.0177002
0.0222667;-0.0149536
0.0222833;-0.012207
0.0223;-0.00915527
0.0223167;-0.00518799
0.0223333;-0.0012207
0.02235;0.00335693
0.0223667;0.00762939
0.0223833;0.0115967
0.0224;0.0149536
0.0224167;0.0177002
0.0224333;0.0195312
0.02245;0.0201416
0.0224667;0.0195312
0.0224833;0.0180054
0.0225;0.0152588
0.0225167;0.0115967
0.0225333;0.00762939
0.02255;0.00427246
0.0225667;0.00152588
0.0225833;0.000305176
0.0226;0.000305176
0.0226167;0.0012207
0.0226333;0.00274658
0.02265;0.00427246
0.0226667;0.00549316
0.0226833;0.00671387
0.0227;0.00793457
0.0227167;0.00915527
0.0227333;0.010376
0.02275;0.0115967
0.0227667;0.0128174
0.0227833;0.0143433
0.0228;0.0164795
0.0228167;0.0192261
0.0228333;0.0219727
0.02285;0.0244141
0.0228667;0.0259399
0.0228833;0.0262451
0.0229;0.0253296
0.0229167;0.0231934
0.0229333;0.0204468
0.02295;0.0177002
0.0229667;0.0158691
0.0229833;0.0146484
0.023;0.0143433
0.0230167;0.0146484
0.0230333;0.0149536
0.02305;0.015564
0.0230667;0.0161743
0.0230833;0.0170898
0.0231;0.0186157
0.0231167;0.0204468
0.0231333;0.0228882
0.02315;0.0253296
0.0231667;0.027771
0.0231833;0.0305176
0.0232;0.0326538
0.0232167;0.03479
0.0232333;0.0363159
0.02325;0.0372314
0.0232667;0.0384521
0.0232833;0.0393677
0.0233;0.0402832
0.0233167;0.0408936
0.0233333;0.0411987
0.02335;0.0408936
0.0233667;0.039978
0.0233833;0.038147
0.0234;0.0357056
0.0234167;0.032959
0.0234333;0.0305176
0.02345;0.0292969
0.0234667;0.0289917
0.0234833;0.0296021
0.0235;0.0305176
0.0235167;0.0311279
0.0235333;0.0308228
0.02355;0.0299072
0.0235667;0.0286865
0.0235833;0.027771
0.0236;0.0274658
0.0236167;0.027771
0.0236333;0.0286865
0.02365;0.0299072
0.0236667;0.0317383
0.0236833;0.0332642
0.0237;0.0350952
0.0237167;0.0369263
0.0237333;0.0384521
0.02375;0.0393677
0.0237667;0.0396729
0.0237833;0.0393677
0.0238;0.0390625
0.0238167;0.0387573
0.0238333;0.0387573
0.02385;0.0384521
0.0238667;0.0378418
0.0238833;0.0369263
0.0239;0.0363159
0.0239167;0.0357056
0.0239333;0.03479
0.02395;0.0338745
0.0239667;0.0326538
0.0239833;0.0311279
0.024;0.0292969
0.0240167;0.0268555
0.0240333;0.0241089
0.02405;0.0210571
0.0240667;0.0177002
0.0240833;0.0146484
0.0241;0.0119019
0.0241167;0.0100708
0.0241333;0.00915527
0.02415;0.00823975
0.0241667;0.00793457
0.0241833;0.00793457
0.0242;0.00793457
0.0242167;0.00793457
0.0242333;0.00762939
0.02425;0.00732422
0.0242667;0.00671387
0.0242833;0.00610352
0.0243;0.00549316
0.0243167;0.00488281
0.0243333;0.00396729
0.02435;0.00305176
0.0243667;0.00213623
0.0243833;0.000610352
0.0244;-0.0012207
0.0244167;-0.00366211
0.0244333;-0.00640869
0.02445;-0.00946045
0.0244667;-0.0119019
0.0244833;-0.0137329
0.0245;-0.0146484
0.0245167;-0.0149536
0.0245333;-0.0152588
0.02455;-0.015564
0.0245667;-0.0158691
0.0245833;-0.0161743
0.0246;-0.0161743
0.0246167;-0.015564
0.0246333;-0.0140381
0.02465;-0.012207
0.0246667;-0.010376
0.0246833;-0.00823975
0.0247;-0.00610352
0.0247167;-0.00457764
0.0247333;-0.00335693
0.02475;-0.00213623
0.0247667;-0.0012207
0.0247833;-0.000305176
0.0248;0.000305176
0.0248167;0.000915527
0.0248333;0.000610352
0.02485;0
0.0248667;-0.000915527
0.0248833;-0.00213623
0.0249;-0.00335693
0.0249167;-0.00457764
0.0249333;-0.00640869
0.02495;-0.00823975
0.0249667;-0.0106812
0.0249833;-0.0131226
0.025;-0.015564
0.0250167;-0.0177002
0.0250333;-0.0198364
0.02505;-0.0213623
0.0250667;-0.0219727
0.0250833;-0.0210571
0.0251;-0.0189209
0.0251167;-0.0161743
0.0251333;-0.0134277
0.02515;-0.0112915
0.0251667;-0.00946045
0.0251833;-0.00793457
0.0252;-0.00640869
0.0252167;-0.00518799
0.0252333;-0.00427246
0.02525;-0.00396729
0.0252667;-0.00366211
0.0252833;-0.00335693
0.0253;-0.00305176
0.0253167;-0.00305176
0.0253333;-0.00305176
0.02535;-0.00335693
0.0253667;-0.00427246
0.0253833;-0.00549316
0.0254;-0.00793457
0.0254167;-0.0109863
0.0254333;-0.0146484
0.02545;-0.0186157
0.0254667;-0.022583
0.0254833;-0.0259399
0.0255;-0.0292969
0.0255167;-0.0320435
0.0255333;-0.03479
0.02555;-0.0372314
0.0255667;-0.0390625
0.0255833;-0.0402832
0.0256;-0.0411987
0.0256167;-0.0415039
0.0256333;-0.0418091
0.02565;-0.0415039
0.0256667;-0.0408936
0.0256833;-0.0393677
0.0257;-0.0372314
0.0257167;-0.0335693
0.0257333;-0.0286865
0.02575;-0.0228882
0.0257667;-0.0167847
0.0257833;-0.010376
0.0258;-0.00427246
0.0258167;0.00152588
0.0258333;0.00701904
0.02585;0.012207
0.0258667;0.0170898
0.0258833;0.0219727
0.0259;0.0268555
0.0259167;0.0317383
0.0259333;0.0360107
0.02595;0.039978
0.0259667;0.0430298
0.0259833;0.0454712
0.026;0.0466919
0.0260167;0.0466919
0.0260333;0.0454712
0.02605;0.0430298
0.0260667;0.0396729
0.0260833;0.0360107
0.0261;0.0320435
0.0261167;0.0280762
0.0261333;0.0244141
0.02615;0.0210571
0.0261667;0.0180054
0.0261833;0.0149536
0.0262;0.012207
0.0262167;0.00976562
0.0262333;0.00762939
0.02625;0.00549316
0.0262667;0.00335693
0.0262833;0.000915527
0.0263;-0.00183105
0.0263167;-0.00396729
0.0263333;-0.00549316
0.02635;-0.00610352
0.0263667;-0.00610352
0.0263833;-0.00610352
0.0264;-0.00640869
0.0264167;-0.00732422
0.0264333;-0.0088501
0.02645;-0.0106812
0.0264667;-0.0125122
0.0264833;-0.0140381
0.0265;-0.015564
0.0265167;-0.0170898
0.0265333;-0.0186157
0.02655;-0.020752
0.0265667;-0.0234985
0.0265833;-0.0259399
0.0266;-0.0280762
0.0266167;-0.0296021
0.0266333;-0.0308228
0.02665;-0.0320435
0.0266667;-0.032959
0.0266833;-0.0338745
0.0267;-0.03479
0.0267167;-0.0354004
0.0267333;-0.0357056
0.02675;-0.0354004
0.0267667;-0.0341797
0.0267833;-0.0320435
0.0268;-0.0299072
0.0268167;-0.027771
0.0268333;-0.0262451
0.02685;-0.0253296
0.0268667;-0.0250244
0.0268833;-0.0250244
0.0269;-0.0256348
0.0269167;-0.0262451
0.0269333;-0.0271606
0.02695;-0.027771
0.0269667;-0.0283813
0.0269833;-0.0289917
0.027;-0.0296021
0.0270167;-0.0305176
0.0270333;-0.0320435
0.02705;-0.0335693
0.0270667;-0.0350952
0.0270833;-0.0372314
0.0271;-0.0390625
0.0271167;-0.0408936
0.0271333;-0.0427246
0.02715;-0.0442505
0.0271667;-0.0457764
0.0271833;-0.0466919
0.0272;-0.0476074
0.0272167;-0.0482178
0.0272333;-0.0488281
0.02725;-0.0500488
0.0272667;-0.0512695
0.0272833;-0.0531006
0.0273;-0.0549316
0.0273167;-0.0561523
0.0273333;-0.0567627
0.02735;-0.0564575
0.0273667;-0.0543213
0.0273833;-0.0512695
0.0274;-0.0476074
0.0274167;-0.0439453
0.0274333;-0.0405884
0.02745;-0.0372314
0.0274667;-0.0338745
0.0274833;-0.0305176
0.0275;-0.0271606
0.0275167;-0.0234985
0.0275333;-0.0201416
0.02755;-0.0164795
0.0275667;-0.0128174
0.0275833;-0.00946045
0.0276;-0.00610352
0.0276167;-0.00305176
0.0276333;-0.000305176
0.02765;0.0012207
0.0276667;0.00183105
0.0276833;0.00183105
0.0277;0.000915527
0.0277167;-0.000610352
0.0277333;-0.00244141
0.02775;-0.00457764
0.0277667;-0.00640869
0.0277833;-0.00793457
0.0278;-0.00946045
0.0278167;-0.010376
0.0278333;-0.010376
0.02785;-0.00946045
0.0278667;-0.00732422
0.0278833;-0.00366211
0.0279;0.0012207
0.0279167;0.00701904
0.0279333;0.0137329
0.02795;0.0213623
0.0279667;0.0299072
0.0279833;0.0393677
0.028;0.0506592
0.0280167;0.0634766
0.0280333;0.0778198
0.02805;0.093689
0.0280667;0.110474
0.0280833;0.127869
0.0281;0.145569
0.0281167;0.163879
0.0281333;0.1828
0.02815;0.203247
0.0281667;0.224609
0.0281833;0.247192
0.0282;0.270691
0.0282167;0.295105
0.0282333;0.32074
0.02825;0.347595
0.0282667;0.375671
0.0282833;0.404358
0.0283;0.432739
0.0283167;0.459595
0.0283333;0.483398
0.02835;0.502625
0.0283667;0.516663
0.0283833;0.526123
0.0284;0.531006
0.0284167;0.531616
0.0284333;0.527649
0.02845;0.518799
0.0284667;0.504456
0.0284833;0.484619
0.0285;0.458984
0.0285167;0.426941
0.0285333;0.388184
0.02855;0.343018
0.0285667;0.292053
0.0285833;0.236816
0.0286;0.178223
0.0286167;0.118408
0.0286333;0.0579834
0.02865;-0.00183105
0.0286667;-0.0598145
0.0286833;-0.115356
0.0287;-0.167236
0.0287167;-0.215149
0.0287333;-0.257568
0.02875;-0.294495
0.0287667;-0.325012
0.0287833;-0.349121
0.0288;-0.367126
0.0288167;-0.379028
0.0288333;-0.385132
0.02885;-0.385437
0.0288667;-0.380249
0.0288833;-0.369873
0.0289;-0.355225
0.0289167;-0.336914
0.0289333;-0.315552
0.02895;-0.292053
0.0289667;-0.267334
0.0289833;-0.241394
0.029;-0.214233
0.0290167;-0.187378
0.0290333;-0.161133
0.02905;-0.137024
0.0290667;-0.115356
0.0290833;-0.0967407
0.0291;-0.0805664
0.0291167;-0.0668335
0.0291333;-0.0546265
0.02915;-0.0439453
0.0291667;-0.0344849
0.0291833;-0.0265503
0.0292;-0.020752
0.0292167;-0.0164795
0.0292333;-0.0140381
0.02925;-0.0134277
0.0292667;-0.0137329
0.0292833;-0.0152588
0.0293;-0.0167847
0.0293167;-0.0186157
0.0293333;-0.0204468
0.02935;-0.0216675
0.0293667;-0.0228882
0.0293833;-0.0234985
0.0294;-0.0241089
0.0294167;-0.0244141
0.0294333;-0.0250244
0.02945;-0.0253296
0.0294667;-0.0253296
0.0294833;-0.0253296
0.0295;-0.0250244
0.0295167;-0.0250244
0.0295333;-0.0250244
0.02955;-0.0250244
0.0295667;-0.0250244
0.0295833;-0.0244141
0.0296;-0.0238037
0.0296167;-0.0228882
0.0296333;-0.0216675
0.02965;-0.0201416
0.0296667;-0.0183105
0.0296833;-0.0161743
0.0297;-0.0143433
0.0297167;-0.0131226
0.0297333;-0.0119019
0.02975;-0.0109863
0.0297667;-0.00976562
0.0297833;-0.00854492
0.0298;-0.00732422
0.0298167;-0.00610352
0.0298333;-0.00579834
0.02985;-0.00579834
0.0298667;-0.00610352
0.0298833;-0.00701904
0.0299;-0.00823975
0.0299167;-0.00915527
0.0299333;-0.010376
0.02995;-0.0119019
0.0299667;-0.0134277
0.0299833;-0.015564
0.03;-0.017395
0.0300167;-0.0192261
0.0300333;-0.020752
0.03005;-0.0222778
0.0300667;-0.0231934
0.0300833;-0.0244141
0.0301;-0.0250244
0.0301167;-0.0253296
0.0301333;-0.0253296
0.03015;-0.0253296
0.0301667;-0.0250244
0.0301833;-0.0247192
0.0302;-0.0241089
0.0302167;-0.0228882
0.0302333;-0.0210571
0.03025;-0.0189209
0.0302667;-0.0161743
0.0302833;-0.0137329
0.0303;-0.0112915
0.0303167;-0.00915527
0.0303333;-0.00732422
0.03035;-0.00518799
0.0303667;-0.00305176
0.0303833;-0.000305176
0.0304;0.00244141
0.0304167;0.00518799
0.0304333;0.00793457
0.03045;0.0106812
0.0304667;0.0137329
0.0304833;0.0167847
0.0305;0.0195312
0.0305167;0.0216675
0.0305333;0.0234985
0.03055;0.0250244
0.0305667;0.0265503
0.0305833;0.0283813
0.0306;0.0302124
0.0306167;0.0320435
0.0306333;0.0338745
0.03065;0.0354004
0.0306667;0.0366211
0.0306833;0.0372314
0.0307;0.0369263
0.0307167;0.0360107
0.0307333;0.0338745
0.03075;0.0314331
0.0307667;0.0280762
0.0307833;0.0250244
0.0308;0.0222778
0.0308167;0.0198364
0.0308333;0.0177002
0.03085;0.015564
0.0308667;0.0134277
0.0308833;0.0112915
0.0309;0.00915527
0.0309167;0.00793457
0.0309333;0.00762939
0.03095;0.00732422
0.0309667;0.00732422
0.0309833;0.00732422
0.031;0.00732422
0.0310167;0.00793457
0.0310333;0.0088501
0.03105;0.010376
0.0310667;0.0125122
0.0310833;0.0149536
0.0311;0.0170898
0.0311167;0.0192261
0.0311333;0.0204468
0.03115;0.0210571
0.0311667;0.0216675
0.0311833;0.0216675
0.0312;0.0222778
0.0312167;0.0234985
0.0312333;0.0250244
0.03125;0.0271606
0.0312667;0.0296021
0.0312833;0.0314331
0.0313;0.032959
0.0313167;0.0335693
0.0313333;0.0335693
0.03135;0.0335693
0.0313667;0.0338745
0.0313833;0.0341797
0.0314;0.0341797
0.0314167;0.0335693
0.0314333;0.0332642
0.03145;0.0335693
0.0314667;0.03479
0.0314833;0.0366211
0.0315;0.0387573
0.0315167;0.0411987
0.0315333;0.0427246
0.03155;0.0442505
0.0315667;0.045166
0.0315833;0.0463867
0.0316;0.0473022
0.0316167;0.0482178
0.0316333;0.0491333
0.03165;0.0497437
0.0316667;0.0500488
0.0316833;0.050354
0.0317;0.0506592
0.0317167;0.0515747
0.0317333;0.0531006
0.03175;0.0546265
0.0317667;0.0561523
0.0317833;0.0579834
0.0318;0.0595093
0.0318167;0.0610352
0.0318333;0.0619507
0.03185;0.062561
0.0318667;0.0631714
0.0318833;0.0631714
0.0319;0.062561
0.0319167;0.0613403
0.0319333;0.0595093
0.03195;0.0570679
0.0319667;0.0546265
0.0319833;0.0527954
0.032;0.0521851
0.0320167;0.0524902
0.0320333;0.0537109
0.03205;0.0549316
0.0320667;0.055542
0.0320833;0.0552368
0.0321;0.0537109
0.0321167;0.0512695
0.0321333;0.0488281
0.03215;0.0463867
0.0321667;0.0448608
0.0321833;0.0445557
0.0322;0.0448608
0.0322167;0.0460815
0.0322333;0.0473022
0.03225;0.0488281
0.0322667;0.0506592
0.0322833;0.0524902
0.0323;0.0546265
0.0323167;0.0564575
0.0323333;0.0582886
0.03235;0.0595093
0.0323667;0.0604248
0.0323833;0.0613403
0.0324;0.0619507
0.0324167;0.0622559
0.0324333;0.0622559
0.03245;0.0622559
0.0324667;0.0622559
0.0324833;0.062561
0.0325;0.0634766
0.0325167;0.0646973
0.0325333;0.0656128
0.03255;0.0665283
0.0325667;0.0665283
0.0325833;0.0662231
0.0326;0.0656128
0.0326167;0.0643921
0.0326333;0.0628662
0.03265;0.0613403
0.0326667;0.0601196
0.0326833;0.0588989
0.0327;0.0579834
0.0327167;0.057373
0.0327333;0.0567627
0.03275;0.0561523
0.0327667;0.0558472
0.0327833;0.0549316
0.0328;0.0540161
0.0328167;0.0531006
0.0328333;0.0515747
0.03285;0.0494385
0.0328667;0.0473022
0.0328833;0.0445557
0.0329;0.0418091
0.0329167;0.038147
0.0329333;0.0341797
0.03295;0.0299072
0.0329667;0.0250244
0.0329833;0.0201416
0.033;0.0152588
0.0330167;0.0100708
0.0330333;0.00488281
0.03305;-0.000305176
0.0330667;-0.00488281
0.0330833;-0.00946045
0.0331;-0.0137329
0.0331167;-0.0177002
0.0331333;-0.0216675
0.03315;-0.0262451
0.0331667;-0.0311279
0.0331833;-0.0369263
0.0332;-0.0427246
0.0332167;-0.0488281
0.0332333;-0.0540161
0.03325;-0.0582886
0.0332667;-0.0613403
0.0332833;-0.0634766
0.0333;-0.0650024
0.0333167;-0.0662231
0.0333333;-0.0671387
0.03335;-0.067749
0.0333667;-0.0683594
0.0333833;-0.0689697
0.0334;-0.0695801
0.0334167;-0.0701904
0.0334333;-0.0708008
0.03345;-0.0708008
0.0334667;-0.0704956
0.0334833;-0.0704956
0.0335;-0.0714111
0.0335167;-0.0723267
0.0335333;-0.0738525
0.03355;-0.0753784
0.0335667;-0.0759888
0.0335833;-0.0762939
0.0336;-0.0759888
0.0336167;-0.0759888
0.0336333;-0.0765991
0.03365;-0.078125
0.0336667;-0.0802612
0.0336833;-0.0830078
0.0337;-0.0863647
0.0337167;-0.0894165
0.0337333;-0.0918579
0.03375;-0.0939941
0.0337667;-0.0952148
0.0337833;-0.0964355
0.0338;-0.0976562
0.0338167;-0.098877
0.0338333;-0.100098
0.03385;-0.100708
0.0338667;-0.101013
0.0338833;-0.101013
0.0339;-0.100403
0.0339167;-0.100098
0.0339333;-0.100098
0.03395;-0.100403
0.0339667;-0.100708
0.0339833;-0.101318
0.034;-0.101624
0.0340167;-0.101318
0.0340333;-0.100708
0.03405;-0.100098
0.0340667;-0.0997925
0.0340833;-0.0994873
0.0341;-0.0991821
0.0341167;-0.098877
0.0341333;-0.0982666
0.03415;-0.0970459
0.0341667;-0.0958252
0.0341833;-0.0946045
0.0342;-0.0933838
0.0342167;-0.0924683
0.0342333;-0.0921631
0.03425;-0.0927734
0.0342667;-0.0939941
0.0342833;-0.09552
0.0343;-0.0973511
0.0343167;-0.098877
0.0343333;-0.100403
0.03435;-0.101624
0.0343667;-0.103149
0.0343833;-0.104675
0.0344;-0.106506
0.0344167;-0.107727
0.0344333;-0.108337
0.03445;-0.107727
0.0344667;-0.105896
0.0344833;-0.103149
0.0345;-0.0991821
0.0345167;-0.0952148
0.0345333;-0.0912476
0.03455;-0.0875854
0.0345667;-0.0845337
0.0345833;-0.0817871
0.0346;-0.0790405
0.0346167;-0.0759888
0.0346333;-0.072937
0.03465;-0.0695801
0.0346667;-0.0665283
0.0346833;-0.0637817
0.0347;-0.0616455
0.0347167;-0.0601196
0.0347333;-0.0595093
0.03475;-0.0595093
0.0347667;-0.0592041
0.0347833;-0.0592041
0.0348;-0.0598145
0.0348167;-0.0610352
0.0348333;-0.062561
0.03485;-0.0640869
0.0348667;-0.065918
0.0348833;-0.0671387
0.0349;-0.0683594
0.0349167;-0.0692749
0.0349333;-0.0695801
0.03495;-0.0698853
0.0349667;-0.0695801
0.0349833;-0.0689697
0.035;-0.0683594
0.0350167;-0.0674438
0.0350333;-0.0665283
0.03505;-0.0656128
0.0350667;-0.0650024
0.0350833;-0.0646973
0.0351;-0.0643921
0.0351167;-0.0640869
0.0351333;-0.0637817
0.03515;-0.0640869
0.0351667;-0.0650024
0.0351833;-0.0662231
0.0352;-0.067749
0.0352167;-0.0695801
0.0352333;-0.0720215
0.03525;-0.0747681
0.0352667;-0.0772095
0.0352833;-0.078125
0.0353;-0.0778198
0.0353167;-0.0759888
0.0353333;-0.0741577
0.03535;-0.0726318
0.0353667;-0.0717163
0.0353833;-0.0717163
0.0354;-0.0723267
0.0354167;-0.072937
0.0354333;-0.0735474
0.03545;-0.0741577
0.0354667;-0.0750732
0.0354833;-0.0753784
0.0355;-0.0753784
0.0355167;-0.0744629
0.0355333;-0.0732422
0.03555;-0.0714111
0.0355667;-0.0689697
0.0355833;-0.0665283
0.0356;-0.0643921
0.0356167;-0.062561
0.0356333;-0.0610352
0.03565;-0.0601196
0.0356667;-0.0598145
0.0356833;-0.0601196
0.0357;-0.06073
0.0357167;-0.0610352
0.0357333;-0.0613403
0.03575;-0.0610352
0.0357667;-0.06073
0.0357833;-0.0604248
0.0358;-0.0601196
0.0358167;-0.0595093
0.0358333;-0.0592041
0.03585;-0.0592041
0.0358667;-0.0598145
0.0358833;-0.06073
0.0359;-0.0619507
0.0359167;-0.0631714
0.0359333;-0.0640869
0.03595;-0.0640869
0.0359667;-0.0637817
0.0359833;-0.0628662
0.036;-0.0619507
0.0360167;-0.0610352
0.0360333;-0.0592041
0.03605;-0.0570679
0.0360667;-0.0543213
0.0360833;-0.0512695
0.0361;-0.0488281
0.0361167;-0.0463867
0.0361333;-0.0448608
0.03615;-0.0442505
0.0361667;-0.0442505
0.0361833;-0.0448608
0.0362;-0.0463867
0.0362167;-0.0488281
0.0362333;-0.0521851
0.03625;-0.0561523
0.0362667;-0.0604248
0.0362833;-0.0643921
0.0363;-0.067749
0.0363167;-0.0704956
0.0363333;-0.0726318
0.03635;-0.0738525
0.0363667;-0.0747681
0.0363833;-0.0753784
0.0364;-0.0756836
0.0364167;-0.0753784
0.0364333;-0.0744629
0.03645;-0.0732422
0.0364667;-0.071106
0.0364833;-0.0680542
0.0365;-0.0646973
0.0365167;-0.06073
0.0365333;-0.0567627
0.03655;-0.0521851
0.0365667;-0.0476074
0.0365833;-0.0427246
0.0366;-0.0384521
0.0366167;-0.0338745
0.0366333;-0.0299072
0.03665;-0.0265503
0.0366667;-0.0234985
0.0366833;-0.0216675
0.0367;-0.0213623
0.0367167;-0.0222778
0.0367333;-0.0247192
0.03675;-0.0283813
0.0367667;-0.032959
0.0367833;-0.0378418
0.0368;-0.043335
0.0368167;-0.0485229
0.0368333;-0.0531006
0.03685;-0.0564575
0.0368667;-0.0588989
0.0368833;-0.0604248
0.0369;-0.0613403
0.0369167;-0.0622559
0.0369333;-0.0628662
0.03695;-0.0634766
0.0369667;-0.0643921
0.0369833;-0.0653076
0.037;-0.0662231
0.0370167;-0.0671387
0.0370333;-0.0674438
0.03705;-0.0674438
0.0370667;-0.0665283
0.0370833;-0.0656128
0.0371;-0.0640869
0.0371167;-0.0622559
0.0371333;-0.0601196
0.03715;-0.057373
0.0371667;-0.0543213
0.0371833;-0.0509644
0.0372;-0.0482178
0.0372167;-0.0454712
0.0372333;-0.0436401
0.03725;-0.0418091
0.0372667;-0.039978
0.0372833;-0.0378418
0.0373;-0.0350952
0.0373167;-0.0317383
0.0373333;-0.0283813
0.03735;-0.0247192
0.0373667;-0.0210571
0.0373833;-0.0170898
0.0374;-0.0125122
0.0374167;-0.00732422
0.0374333;-0.00183105
0.03745;0.00305176
0.0374667;0.00701904
0.0374833;0.00976562
0.0375;0.0112915
0.0375167;0.012207
0.0375333;0.0128174
0.03755;0.0137329
0.0375667;0.0152588
0.0375833;0.0164795
0.0376;0.017395
0.0376167;0.0177002
0.0376333;0.0167847
0.03765;0.0152588
0.0376667;0.0134277
0.0376833;0.0112915
0.0377;0.00915527
0.0377167;0.00701904
0.0377333;0.00518799
0.03775;0.00335693
0.0377667;0.00183105
0.0377833;0.000305176
0.0378;-0.00152588
0.0378167;-0.00335693
0.0378333;-0.00579834
0.03785;-0.0088501
0.0378667;-0.012207
0.0378833;-0.015564
0.0379;-0.0186157
0.0379167;-0.0213623
0.0379333;-0.0238037
0.03795;-0.0265503
0.0379667;-0.0292969
0.0379833;-0.0326538
0.038;-0.0366211
0.0380167;-0.0405884
0.0380333;-0.045166
0.03805;-0.0497437
0.0380667;-0.0540161
0.0380833;-0.0579834
0.0381;-0.0616455
0.0381167;-0.0643921
0.0381333;-0.065918
0.03815;-0.0668335
0.0381667;-0.0671387
0.0381833;-0.0668335
0.0382;-0.0662231
0.0382167;-0.0656128
0.0382333;-0.0646973
0.03825;-0.0640869
0.0382667;-0.0634766
0.0382833;-0.0631714
0.0383;-0.0628662
0.0383167;-0.062561
0.0383333;-0.0619507
0.03835;-0.0616455
0.0383667;-0.0616455
0.0383833;-0.0622559
0.0384;-0.0631714
0.0384167;-0.0646973
0.0384333;-0.0662231
0.03845;-0.0680542
0.0384667;-0.0695801
0.0384833;-0.0704956
0.0385;-0.071106
0.0385167;-0.0720215
0.0385333;-0.072937
0.03855;-0.0741577
0.0385667;-0.0753784
0.0385833;-0.0765991
0.0386;-0.0772095
0.0386167;-0.0778198
0.0386333;-0.0775146
0.03865;-0.0762939
0.0386667;-0.0747681
0.0386833;-0.072937
0.0387;-0.0708008
0.0387167;-0.0686646
0.0387333;-0.0668335
0.03875;-0.0653076
0.0387667;-0.0643921
0.0387833;-0.0640869
0.0388;-0.0640869
0.0388167;-0.0646973
0.0388333;-0.0656128
0.03885;-0.0662231
0.0388667;-0.0668335
0.0388833;-0.0674438
0.0389;-0.0674438
0.0389167;-0.0671387
0.0389333;-0.0665283
0.03895;-0.0662231
0.0389667;-0.0656128
0.0389833;-0.0646973
0.039;-0.0637817
0.0390167;-0.0622559
0.0390333;-0.0604248
0.03905;-0.0582886
0.0390667;-0.0558472
0.0390833;-0.0534058
0.0391;-0.0506592
0.0391167;-0.0479126
0.0391333;-0.0454712
0.03915;-0.0436401
0.0391667;-0.0424194
0.0391833;-0.0415039
0.0392;-0.0405884
0.0392167;-0.039978
0.0392333;-0.0393677
0.03925;-0.0396729
0.0392667;-0.039978
0.0392833;-0.0411987
0.0393;-0.0427246
0.0393167;-0.0442505
0.0393333;-0.0454712
0.03935;-0.0460815
0.0393667;-0.0457764
0.0393833;-0.0439453
0.0394;-0.0411987
0.0394167;-0.0378418
0.0394333;-0.0350952
0.03945;-0.0323486
0.0394667;-0.0299072
0.0394833;-0.0265503
0.0395;-0.0219727
0.0395167;-0.0158691
0.0395333;-0.00823975
0.03955;0.000915527
0.0395667;0.0109863
0.0395833;0.022583
0.0396;0.0350952
0.0396167;0.0488281
0.0396333;0.0628662
0.03965;0.0772095
0.0396667;0.0918579
0.0396833;0.107117
0.0397;0.122986
0.0397167;0.140076
0.0397333;0.158997
0.03975;0.180359
0.0397667;0.204163
0.0397833;0.230103
0.0398;0.257874
0.0398167;0.286865
0.0398333;0.316772
0.03985;0.34729
0.0398667;0.377502
0.0398833;0.406799
0.0399;0.43335
0.0399167;0.456543
0.0399333;0.475159
0.03995;0.489197
0.0399667;0.498657
0.0399833;0.50354
0.04;0.503845
0.0400167;0.499268
0.0400333;0.489197
0.04005;0.473328
0.0400667;0.450439
0.0400833;0.420227
0.0401;0.382996
0.0401167;0.338135
0.0401333;0.28717
0.04015;0.230408
0.0401667;0.169983
0.0401833;0.106812
0.0402;0.0430298
0.0402167;-0.0198364
0.0402333;-0.0808716
0.04025;-0.13916
0.0402667;-0.193787
0.0402833;-0.244446
0.0403;-0.289917
0.0403167;-0.329895
0.0403333;-0.363464
0.04035;-0.39032
0.0403667;-0.409851
0.0403833;-0.422974
0.0404;-0.428772
0.0404167;-0.428162
0.0404333;-0.420532
0.04045;-0.406799
0.0404667;-0.388184
0.0404833;-0.365295
0.0405;-0.339661
0.0405167;-0.312195
0.0405333;-0.283508
0.04055;-0.254211
0.0405667;-0.22522
0.0405833;-0.196838
0.0406;-0.169678
0.0406167;-0.144043
0.0406333;-0.120239
0.04065;-0.0985718
0.0406667;-0.0793457
0.0406833;-0.0628662
0.0407;-0.0491333
0.0407167;-0.0384521
0.0407333;-0.0302124
0.04075;-0.0247192
0.0407667;-0.0216675
0.0407833;-0.020752
0.0408;-0.0213623
0.0408167;-0.0231934
0.0408333;-0.0253296
0.04085;-0.0271606
0.0408667;-0.0280762
0.0408833;-0.0289917
0.0409;-0.0296021
0.0409167;-0.0302124
0.0409333;-0.0308228
0.04095;-0.0311279
0.0409667;-0.0314331
0.0409833;-0.0308228
0.041;-0.0302124
0.0410167;-0.0289917
0.0410333;-0.0280762
0.04105;-0.0274658
0.0410667;-0.0271606
0.0410833;-0.0274658
0.0411;-0.027771
0.0411167;-0.0280762
0.0411333;-0.0283813
0.04115;-0.0286865
0.0411667;-0.0286865
0.0411833;-0.0289917
0.0412;-0.0289917
0.0412167;-0.0286865
0.0412333;-0.0283813
0.04125;-0.027771
0.0412667;-0.0271606
0.0412833;-0.0265503
0.0413;-0.0259399
0.0413167;-0.0250244
0.0413333;-0.0244141
0.04135;-0.0234985
0.0413667;-0.0222778
0.0413833;-0.0213623
0.0414;-0.0204468
0.0414167;-0.0201416
0.0414333;-0.0198364
0.04145;-0.0195312
0.0414667;-0.0186157
0.0414833;-0.0170898
0.0415;-0.0149536
0.0415167;-0.0125122
0.0415333;-0.0100708
0.04155;-0.00762939
0.0415667;-0.00579834
0.0415833;-0.00427246
0.0416;-0.00305176
0.0416167;-0.00274658
0.0416333;-0.00274658
0.04165;-0.00305176
0.0416667;-0.00366211
0.0416833;-0.00366211
0.0417;-0.00305176
0.0417167;-0.0012207
0.0417333;0.00152588
0.04175;0.00518799
0.0417667;0.0088501
0.0417833;0.012207
0.0418;0.0149536
0.0418167;0.0167847
0.0418333;0.017395
0.04185;0.017395
0.0418667;0.0167847
0.0418833;0.0158691
0.0419;0.0149536
0.0419167;0.0143433
0.0419333;0.0137329
0.04195;0.0137329
0.0419667;0.0137329
0.0419833;0.0137329
0.042;0.0140381
0.0420167;0.0146484
0.0420333;0.0152588
0.04205;0.015564
0.0420667;0.0152588
0.0420833;0.0149536
0.0421;0.0152588
0.0421167;0.0167847
0.0421333;0.0195312
0.04215;0.022583
0.0421667;0.0256348
0.0421833;0.0280762
0.0422;0.0292969
0.0422167;0.0299072
0.0422333;0.0292969
0.04225;0.0283813
0.0422667;0.0265503
0.0422833;0.0247192
0.0423;0.0228882
0.0423167;0.0210571
0.0423333;0.0195312
0.04235;0.0189209
0.0423667;0.0189209
0.0423833;0.0195312
0.0424;0.0204468
0.0424167;0.0219727
0.0424333;0.0234985
0.04245;0.0250244
0.0424667;0.0268555
0.0424833;0.0286865
0.0425;0.0305176
0.0425167;0.032959
0.0425333;0.0350952
0.04255;0.0375366
0.0425667;0.0396729
0.0425833;0.0418091
0.0426;0.0439453
0.0426167;0.0460815
0.0426333;0.0482178
0.04265;0.0506592
0.0426667;0.0531006
0.0426833;0.0552368
0.0427;0.0567627
0.0427167;0.0570679
0.0427333;0.0561523
0.04275;0.0543213
0.0427667;0.0518799
0.0427833;0.0491333
0.0428;0.0460815
0.0428167;0.0427246
0.0428333;0.039978
0.04285;0.0387573
0.0428667;0.0387573
0.0428833;0.0402832
0.0429;0.0430298
0.0429167;0.0463867
0.0429333;0.0497437
0.04295;0.0534058
0.0429667;0.0567627
0.0429833;0.0598145
0.043;0.0631714
0.0430167;0.0662231
0.0430333;0.0689697
0.04305;0.0720215
0.0430667;0.0747681
0.0430833;0.0778198
0.0431;0.0805664
0.0431167;0.083313
0.0431333;0.0857544
0.04315;0.0875854
0.0431667;0.0891113
0.0431833;0.090332
0.0432;0.0906372
0.0432167;0.0912476
0.0432333;0.0915527
0.04325;0.0924683
0.0432667;0.0933838
0.0432833;0.0939941
0.0433;0.0949097
0.0433167;0.0958252
0.0433333;0.0970459
0.04335;0.0982666
0.0433667;0.0997925
0.0433833;0.101318
0.0434;0.102539
0.0434167;0.103455
0.0434333;0.10437
0.04345;0.105286
0.0434667;0.106506
0.0434833;0.108032
0.0435;0.109558
0.0435167;0.110168
0.0435333;0.110474
0.04355;0.110168
0.0435667;0.108948
0.0435833;0.107422
0.0436;0.105286
0.0436167;0.102539
0.0436333;0.0997925
0.04365;0.0970459
0.0436667;0.0942993
0.0436833;0.0924683
0.0437;0.0912476
0.0437167;0.0906372
0.0437333;0.0909424
0.04375;0.0915527
0.0437667;0.0927734
0.0437833;0.0942993
0.0438;0.0964355
0.0438167;0.098877
0.0438333;0.101624
0.04385;0.10437
0.0438667;0.107422
0.0438833;0.110168
0.0439;0.112305
0.0439167;0.113525
0.0439333;0.114136
0.04395;0.114441
0.0439667;0.115356
0.0439833;0.116272
0.044;0.117798
0.0440167;0.119019
0.0440333;0.120239
0.04405;0.120239
0.0440667;0.119934
0.0440833;0.118103
0.0441;0.115356
0.0441167;0.111389
0.0441333;0.106812
0.04415;0.102234
0.0441667;0.0982666
0.0441833;0.0949097
0.0442;0.0930786
0.0442167;0.0921631
0.0442333;0.0918579
0.04425;0.0912476
0.0442667;0.0906372
0.0442833;0.0897217
0.0443;0.088501
0.0443167;0.0875854
0.0443333;0.0863647
0.04435;0.0854492
0.0443667;0.0842285
0.0443833;0.0827026
0.0444;0.0802612
0.0444167;0.0772095
0.0444333;0.0744629
0.04445;0.0723267
0.0444667;0.0708008
0.0444833;0.0701904
0.0445;0.0695801
0.0445167;0.0686646
0.0445333;0.0668335
0.04455;0.0637817
0.0445667;0.0595093
0.0445833;0.0546265
0.0446;0.0488281
0.0446167;0.0421143
0.0446333;0.0354004
0.04465;0.0292969
0.0446667;0.0244141
0.0446833;0.0213623
0.0447;0.0192261
0.0447167;0.0177002
0.0447333;0.0158691
0.04475;0.0134277
0.0447667;0.010376
0.0447833;0.00671387
0.0448;0.00274658
0.0448167;-0.000610352
0.0448333;-0.00335693
0.04485;-0.00549316
0.0448667;-0.00732422
0.0448833;-0.0088501
0.0449;-0.010376
0.0449167;-0.0112915
0.0449333;-0.012207
0.04495;-0.0128174
0.0449667;-0.0131226
0.0449833;-0.0128174
0.045;-0.0125122
0.0450167;-0.012207
0.0450333;-0.012207
0.04505;-0.0128174
0.0450667;-0.0140381
0.0450833;-0.015564
0.0451;-0.0180054
0.0451167;-0.0210571
0.0451333;-0.0250244
0.04515;-0.0299072
0.0451667;-0.0350952
0.0451833;-0.0402832
0.0452;-0.0448608
0.0452167;-0.0485229
0.0452333;-0.0515747
0.04525;-0.0537109
0.0452667;-0.0552368
0.0452833;-0.0570679
0.0453;-0.0585938
0.0453167;-0.0598145
0.0453333;-0.0610352
0.04535;-0.0619507
0.0453667;-0.0622559
0.0453833;-0.0622559
0.0454;-0.0613403
0.0454167;-0.0604248
0.0454333;-0.0592041
0.04545;-0.0579834
0.0454667;-0.0567627
0.0454833;-0.0552368
0.0455;-0.0534058
0.0455167;-0.0509644
0.0455333;-0.0485229
0.04555;-0.0454712
0.0455667;-0.0427246
0.0455833;-0.0402832
0.0456;-0.038147
0.0456167;-0.0372314
0.0456333;-0.0375366
0.04565;-0.038147
0.0456667;-0.0393677
0.0456833;-0.0408936
0.0457;-0.0415039
0.0457167;-0.0418091
0.0457333;-0.0415039
0.04575;-0.0408936
0.0457667;-0.0396729
0.0457833;-0.0384521
0.0458;-0.0375366
0.0458167;-0.0369263
0.0458333;-0.0363159
0.04585;-0.0357056
0.0458667;-0.0350952
0.0458833;-0.0341797
0.0459;-0.0332642
0.0459167;-0.0326538
0.0459333;-0.0317383
0.04595;-0.0311279
0.0459667;-0.0305176
0.0459833;-0.0299072
0.046;-0.0289917
0.0460167;-0.0280762
0.0460333;-0.0274658
0.04605;-0.0271606
0.0460667;-0.0268555
0.0460833;-0.0265503
0.0461;-0.0259399
0.0461167;-0.0250244
0.0461333;-0.0241089
0.04615;-0.0231934
0.0461667;-0.0222778
0.0461833;-0.0216675
0.0462;-0.0213623
0.0462167;-0.0216675
0.0462333;-0.0219727
0.04625;-0.0228882
0.0462667;-0.0241089
0.0462833;-0.0250244
0.0463;-0.0259399
0.0463167;-0.0268555
0.0463333;-0.0274658
0.04635;-0.0286865
0.0463667;-0.0296021
0.0463833;-0.0308228
0.0464;-0.0317383
0.0464167;-0.0320435
0.0464333;-0.0320435
0.04645;-0.0314331
0.0464667;-0.0302124
0.0464833;-0.0283813
0.0465;-0.0256348
0.0465167;-0.0228882
0.0465333;-0.0201416
0.04655;-0.017395
0.0465667;-0.0140381
0.0465833;-0.0109863
0.0466;-0.00823975
0.0466167;-0.00549316
0.0466333;-0.00335693
0.04665;-0.00183105
0.0466667;-0.0012207
0.0466833;-0.00152588
0.0467;-0.00305176
0.0467167;-0.00518799
0.0467333;-0.00793457
0.04675;-0.010376
0.0467667;-0.0128174
0.0467833;-0.0149536
0.0468;-0.017395
0.0468167;-0.0198364
0.0468333;-0.0228882
0.04685;-0.0259399
0.0468667;-0.0289917
0.0468833;-0.0317383
0.0469;-0.0341797
0.0469167;-0.0363159
0.0469333;-0.0378418
0.04695;-0.0387573
0.0469667;-0.0384521
0.0469833;-0.0369263
0.047;-0.0338745
0.0470167;-0.0296021
0.0470333;-0.0244141
0.04705;-0.0192261
0.0470667;-0.0149536
0.0470833;-0.0112915
0.0471;-0.00854492
0.0471167;-0.00640869
0.0471333;-0.00488281
0.04715;-0.00305176
0.0471667;-0.00152588
0.0471833;0.000305176
0.0472;0.00183105
0.0472167;0.00274658
0.0472333;0.00305176
0.04725;0.00244141
0.0472667;0.000915527
0.0472833;-0.000915527
0.0473;-0.00335693
0.0473167;-0.00610352
0.0473333;-0.00976562
0.04735;-0.0137329
0.0473667;-0.0180054
0.0473833;-0.022583
0.0474;-0.0265503
0.0474167;-0.0302124
0.0474333;-0.032959
0.04745;-0.0350952
0.0474667;-0.0366211
0.0474833;-0.038147
0.0475;-0.039978
0.0475167;-0.0418091
0.0475333;-0.0439453
0.04755;-0.0454712
0.0475667;-0.0466919
0.0475833;-0.0473022
0.0476;-0.0466919
0.0476167;-0.0448608
0.0476333;-0.0421143
0.04765;-0.0390625
0.0476667;-0.0360107
0.0476833;-0.0332642
0.0477;-0.0308228
0.0477167;-0.0289917
0.0477333;-0.0274658
0.04775;-0.0262451
0.0477667;-0.0253296
0.0477833;-0.0244141
0.0478;-0.0228882
0.0478167;-0.0213623
0.0478333;-0.0198364
0.04785;-0.0186157
0.0478667;-0.0180054
0.0478833;-0.0177002
0.0479;-0.0183105
0.0479167;-0.0195312
0.0479333;-0.0210571
0.04795;-0.0234985
0.0479667;-0.0262451
0.0479833;-0.0292969
0.048;-0.0323486
0.0480167;-0.0350952
0.0480333;-0.0375366
0.04805;-0.039978
0.0480667;-0.0421143
0.0480833;-0.0439453
0.0481;-0.045166
0.0481167;-0.0454712
0.0481333;-0.0448608
0.04815;-0.0436401
0.0481667;-0.0421143
0.0481833;-0.0411987
0.0482;-0.0405884
0.0482167;-0.0402832
0.0482333;-0.0402832
0.04825;-0.0405884
0.0482667;-0.0405884
0.0482833;-0.0402832
0.0483;-0.0393677
0.0483167;-0.0375366
0.0483333;-0.0357056
0.04835;-0.0338745
0.0483667;-0.0323486
0.0483833;-0.0314331
0.0484;-0.0311279
0.0484167;-0.0314331
0.0484333;-0.032959
0.04845;-0.03479
0.0484667;-0.0375366
0.0484833;-0.0402832
0.0485;-0.043335
0.0485167;-0.0460815
0.0485333;-0.0482178
0.04855;-0.0497437
0.0485667;-0.050354
0.0485833;-0.050354
0.0486;-0.0494385
0.0486167;-0.0479126
0.0486333;-0.0463867
0.04865;-0.045166
0.0486667;-0.0445557
0.0486833;-0.0439453
0.0487;-0.0436401
0.0487167;-0.043335
0.0487333;-0.043335
0.04875;-0.043335
0.0487667;-0.0427246
0.0487833;-0.0418091
0.0488;-0.0405884
0.0488167;-0.0387573
0.0488333;-0.0372314
0.04885;-0.0354004
0.0488667;-0.0338745
0.0488833;-0.032959
0.0489;-0.0320435
0.0489167;-0.0317383
0.0489333;-0.0320435
0.04895;-0.0326538
0.0489667;-0.0335693
0.0489833;-0.0335693
0.049;-0.0323486
0.0490167;-0.0299072
0.0490333;-0.0262451
0.04905;-0.0216675
0.0490667;-0.0167847
0.0490833;-0.0119019
0.0491;-0.00701904
0.0491167;-0.00274658
0.0491333;0.00183105
0.04915;0.00610352
0.0491667;0.010376
0.0491833;0.0143433
0.0492;0.0183105
0.0492167;0.0216675
0.0492333;0.0238037
0.04925;0.0253296
0.0492667;0.0256348
0.0492833;0.0253296
0.0493;0.0247192
0.0493167;0.0238037
0.0493333;0.0222778
0.04935;0.0198364
0.0493667;0.0167847
0.0493833;0.0134277
0.0494;0.00976562
0.0494167;0.00549316
0.0494333;0.0012207
0.04945;-0.00335693
0.0494667;-0.00854492
0.0494833;-0.0137329
0.0495;-0.0192261
0.0495167;-0.0244141
0.0495333;-0.0296021
0.04955;-0.0344849
0.0495667;-0.0390625
0.0495833;-0.0424194
0.0496;-0.045166
0.0496167;-0.0463867
0.0496333;-0.0463867
0.04965;-0.0454712
0.0496667;-0.0436401
0.0496833;-0.0418091
0.0497;-0.0402832
0.0497167;-0.0393677
0.0497333;-0.0387573
0.04975;-0.038147
0.0497667;-0.0372314
0.0497833;-0.0366211
0.0498;-0.0357056
0.0498167;-0.0354004
0.0498333;-0.0350952
0.04985;-0.0354004
0.0498667;-0.0357056
0.0498833;-0.0366211
0.0499;-0.0378418
0.0499167;-0.0396729
0.0499333;-0.0418091
0.04995;-0.0445557
0.0499667;-0.0476074
0.0499833;-0.0515747
0.05;-0.0564575
0.0500167;-0.0619507
0.0500333;-0.0680542
0.05005;-0.0735474
0.0500667;-0.0787354
0.0500833;-0.0823975
0.0501;-0.0848389
0.0501167;-0.0863647
0.0501333;-0.0869751
0.05015;-0.0869751
0.0501667;-0.0866699
0.0501833;-0.0860596
0.0502;-0.0848389
0.0502167;-0.083313
0.0502333;-0.0811768
0.05025;-0.0787354
0.0502667;-0.0759888
0.0502833;-0.072937
0.0503;-0.0701904
0.0503167;-0.0680542
0.0503333;-0.0662231
0.05035;-0.0653076
0.0503667;-0.0650024
0.0503833;-0.0653076
0.0504;-0.0656128
0.0504167;-0.065918
0.0504333;-0.0662231
0.05045;-0.0665283
0.0504667;-0.0671387
0.0504833;-0.067749
0.0505;-0.0686646
0.0505167;-0.0698853
0.0505333;-0.0714111
0.05055;-0.072937
0.0505667;-0.0747681
0.0505833;-0.0772095
0.0506;-0.0802612
0.0506167;-0.083313
0.0506333;-0.0860596
0.05065;-0.0881958
0.0506667;-0.0894165
0.0506833;-0.0897217
0.0507;-0.0894165
0.0507167;-0.0881958
0.0507333;-0.0860596
0.05075;-0.083313
0.0507667;-0.0802612
0.0507833;-0.0775146
0.0508;-0.0750732
0.0508167;-0.0726318
0.0508333;-0.0708008
0.05085;-0.0692749
0.0508667;-0.0674438
0.0508833;-0.065918
0.0509;-0.0640869
0.0509167;-0.0619507
0.0509333;-0.0601196
0.05095;-0.0579834
0.0509667;-0.0561523
0.0509833;-0.0540161
0.051;-0.0518799
0.0510167;-0.0497437
0.0510333;-0.0485229
0.05105;-0.0476074
0.0510667;-0.0476074
0.0510833;-0.0473022
0.0511;-0.0473022
0.0511167;-0.0473022
0.0511333;-0.0466919
0.05115;-0.0460815
0.0511667;-0.045166
0.0511833;-0.0436401
0.0512;-0.0405884
0.0512167;-0.0357056
0.0512333;-0.0283813
0.05125;-0.0189209
0.0512667;-0.00701904
0.0512833;0.00701904
0.0513;0.0222778
0.0513167;0.0390625
0.0513333;0.0567627
0.05135;0.0750732
0.0513667;0.0942993
0.0513833;0.113831
0.0514;0.134277
0.0514167;0.15564
0.0514333;0.178223
0.05145;0.202026
0.0514667;0.227356
0.0514833;0.254211
0.0515;0.281982
0.0515167;0.310059
0.0515333;0.338135
0.05155;0.365295
0.0515667;0.390015
0.0515833;0.411072
0.0516;0.426941
0.0516167;0.437012
0.0516333;0.441589
0.05165;0.441589
0.0516667;0.438232
0.0516833;0.432129
0.0517;0.422974
0.0517167;0.410461
0.0517333;0.393066
0.05175;0.369873
0.0517667;0.340881
0.0517833;0.305786
0.0518;0.265808
0.0518167;0.221558
0.0518333;0.174255
0.05185;0.123901
0.0518667;0.0720215
0.0518833;0.0189209
0.0519;-0.0341797
0.0519167;-0.0857544
0.0519333;-0.134888
0.05195;-0.180359
0.0519667;-0.222168
0.0519833;-0.26001
0.052;-0.293579
0.0520167;-0.322571
0.0520333;-0.347595
0.05205;-0.367737
0.0520667;-0.383606
0.0520833;-0.394287
0.0521;-0.400391
0.0521167;-0.401917
0.0521333;-0.398865
0.05215;-0.391846
0.0521667;-0.38147
0.0521833;-0.368042
0.0522;-0.351562
0.0522167;-0.332336
0.0522333;-0.310974
0.05225;-0.288086
0.0522667;-0.264587
0.0522833;-0.241699
0.0523;-0.219727
0.0523167;-0.198975
0.0523333;-0.179443
0.05235;-0.160828
0.0523667;-0.143127
0.0523833;-0.126648
0.0524;-0.111084
0.0524167;-0.0967407
0.0524333;-0.0836182
0.05245;-0.0717163
0.0524667;-0.0616455
0.0524833;-0.0534058
0.0525;-0.0473022
0.0525167;-0.0427246
0.0525333;-0.0393677
0.05255;-0.0372314
0.0525667;-0.0357056
0.0525833;-0.0350952
0.0526;-0.03479
0.0526167;-0.0357056
0.0526333;-0.0372314
0.05265;-0.0402832
0.0526667;-0.0439453
0.0526833;-0.0485229
0.0527;-0.0531006
0.0527167;-0.0579834
0.0527333;-0.0619507
0.05275;-0.0646973
0.0527667;-0.0662231
0.0527833;-0.0665283
0.0528;-0.0662231
0.0528167;-0.0650024
0.0528333;-0.0637817
0.05285;-0.0619507
0.0528667;-0.0601196
0.0528833;-0.0582886
0.0529;-0.0561523
0.0529167;-0.0543213
0.0529333;-0.0524902
0.05295;-0.0515747
0.0529667;-0.0509644
0.0529833;-0.0506592
0.053;-0.050354
0.0530167;-0.0494385
0.0530333;-0.0476074
0.05305;-0.0442505
0.0530667;-0.0408936
0.0530833;-0.0375366
0.0531;-0.0354004
0.0531167;-0.0344849
0.0531333;-0.0341797
0.05315;-0.0338745
0.0531667;-0.0332642
0.0531833;-0.0326538
0.0532;-0.0317383
0.0532167;-0.0308228
0.0532333;-0.0299072
0.05325;-0.0286865
0.0532667;-0.0271606
0.0532833;-0.0253296
0.0533;-0.0231934
0.0533167;-0.0216675
0.0533333;-0.020752
0.05335;-0.0201416
0.0533667;-0.0201416
0.0533833;-0.0201416
0.0534;-0.0195312
0.0534167;-0.0186157
0.0534333;-0.0180054
0.05345;-0.0180054
0.0534667;-0.0189209
0.0534833;-0.0201416
0.0535;-0.0213623
0.0535167;-0.0219727
0.0535333;-0.0216675
0.05355;-0.0210571
0.0535667;-0.0204468
0.0535833;-0.0198364
0.0536;-0.0195312
0.0536167;-0.0195312
0.0536333;-0.0192261
0.05365;-0.0192261
0.0536667;-0.0192261
0.0536833;-0.0195312
0.0537;-0.0198364
0.0537167;-0.0198364
0.0537333;-0.0195312
0.05375;-0.0189209
0.0537667;-0.0183105
0.0537833;-0.0183105
0.0538;-0.0186157
0.0538167;-0.0195312
0.0538333;-0.0204468
0.05385;-0.0210571
0.0538667;-0.0210571
0.0538833;-0.020752
0.0539;-0.0204468
0.0539167;-0.0204468
0.0539333;-0.0201416
0.05395;-0.0201416
0.0539667;-0.0195312
0.0539833;-0.0183105
0.054;-0.0158691
0.0540167;-0.0125122
0.0540333;-0.00854492
0.05405;-0.00427246
0.0540667;0.000305176
0.0540833;0.00457764
0.0541;0.0088501
0.0541167;0.0134277
0.0541333;0.017395
0.05415;0.0213623
0.0541667;0.0250244
0.0541833;0.0283813
0.0542;0.0317383
0.0542167;0.03479
0.0542333;0.0375366
0.05425;0.039978
0.0542667;0.0421143
0.0542833;0.043335
0.0543;0.043335
0.0543167;0.0421143
0.0543333;0.0396729
0.05435;0.0372314
0.0543667;0.0350952
0.0543833;0.0332642
0.0544;0.0317383
0.0544167;0.0308228
0.0544333;0.0292969
0.05445;0.027771
0.0544667;0.0253296
0.0544833;0.022583
0.0545;0.0192261
0.0545167;0.0164795
0.0545333;0.0143433
0.05455;0.0125122
0.0545667;0.0112915
0.0545833;0.0109863
0.0546;0.0112915
0.0546167;0.0125122
0.0546333;0.0143433
0.05465;0.0170898
0.0546667;0.0201416
0.0546833;0.0238037
0.0547;0.0274658
0.0547167;0.0311279
0.0547333;0.0338745
0.05475;0.0363159
0.0547667;0.038147
0.0547833;0.0396729
0.0548;0.0415039
0.0548167;0.043335
0.0548333;0.0454712
0.05485;0.0482178
0.0548667;0.0512695
0.0548833;0.0546265
0.0549;0.0582886
0.0549167;0.0619507
0.0549333;0.0656128
0.05495;0.0689697
0.0549667;0.0717163
0.0549833;0.0741577
0.055;0.0759888
0.0550167;0.0769043
0.0550333;0.0775146
0.05505;0.0775146
0.0550667;0.0772095
0.0550833;0.0769043
0.0551;0.0762939
0.0551167;0.0753784
0.0551333;0.0741577
0.05515;0.0723267
0.0551667;0.0698853
0.0551833;0.0662231
0.0552;0.0622559
0.0552167;0.0579834
0.0552333;0.0537109
0.05525;0.0500488
0.0552667;0.0466919
0.0552833;0.0439453
0.0553;0.0415039
0.0553167;0.0393677
0.0553333;0.0372314
0.05535;0.0357056
0.0553667;0.03479
0.0553833;0.0344849
0.0554;0.0350952
0.0554167;0.0357056
0.0554333;0.0357056
0.05545;0.0360107
0.0554667;0.0366211
0.0554833;0.0384521
0.0555;0.0415039
0.0555167;0.0454712
0.0555333;0.0497437
0.05555;0.0540161
0.0555667;0.0579834
0.0555833;0.0616455
0.0556;0.0643921
0.0556167;0.0665283
0.0556333;0.067749
0.05565;0.0683594
0.0556667;0.0686646
0.0556833;0.0686646
0.0557;0.0686646
0.0557167;0.0680542
0.0557333;0.0674438
0.05575;0.0656128
0.0557667;0.0634766
0.0557833;0.0610352
0.0558;0.0588989
0.0558167;0.0570679
0.0558333;0.0558472
0.05585;0.0552368
0.0558667;0.0546265
0.0558833;0.0537109
0.0559;0.0531006
0.0559167;0.0518799
0.0559333;0.0506592
0.05595;0.0494385
0.0559667;0.0485229
0.0559833;0.0482178
0.056;0.0485229
0.0560167;0.0494385
0.0560333;0.0506592
0.05605;0.0515747
0.0560667;0.0524902
0.0560833;0.0531006
0.0561;0.0527954
0.0561167;0.0518799
0.0561333;0.050354
0.05615;0.0488281
0.0561667;0.0466919
0.0561833;0.0448608
0.0562;0.0430298
0.0562167;0.0408936
0.0562333;0.0384521
0.05625;0.0357056
0.0562667;0.0320435
0.0562833;0.0280762
0.0563;0.0234985
0.0563167;0.0183105
0.0563333;0.0125122
0.05635;0.00640869
0.0563667;-0.000305176
0.0563833;-0.00671387
0.0564;-0.0119019
0.0564167;-0.0152588
0.0564333;-0.0164795
0.05645;-0.0167847
0.0564667;-0.0164795
0.0564833;-0.0161743
0.0565;-0.0161743
0.0565167;-0.0170898
0.0565333;-0.0183105
0.05655;-0.0195312
0.0565667;-0.0204468
0.0565833;-0.0213623
0.0566;-0.0222778
0.0566167;-0.0234985
0.0566333;-0.0250244
0.05665;-0.0265503
0.0566667;-0.0283813
0.0566833;-0.0308228
0.0567;-0.032959
0.0567167;-0.0350952
0.0567333;-0.0366211
0.05675;-0.0372314
0.0567667;-0.0375366
0.0567833;-0.0375366
0.0568;-0.0372314
0.0568167;-0.0375366
0.0568333;-0.038147
0.05685;-0.0390625
0.0568667;-0.0402832
0.0568833;-0.0415039
0.0569;-0.0427246
0.0569167;-0.043335
0.0569333;-0.0442505
0.05695;-0.0448608
0.0569667;-0.0448608
0.0569833;-0.0436401
0.057;-0.0408936
0.0570167;-0.0369263
0.0570333;-0.032959
0.05705;-0.0299072
0.0570667;-0.0286865
0.0570833;-0.0286865
0.0571;-0.0305176
0.0571167;-0.0335693
0.0571333;-0.0366211
0.05715;-0.0393677
0.0571667;-0.0411987
0.0571833;-0.0424194
0.0572;-0.043335
0.0572167;-0.0445557
0.0572333;-0.0466919
0.05725;-0.0500488
0.0572667;-0.0537109
0.0572833;-0.0570679
0.0573;-0.0595093
0.0573167;-0.06073
0.0573333;-0.06073
0.05735;-0.0598145
0.0573667;-0.0579834
0.0573833;-0.0564575
0.0574;-0.0549316
0.0574167;-0.0540161
0.0574333;-0.0527954
0.05745;-0.0515747
0.0574667;-0.0500488
0.0574833;-0.0485229
0.0575;-0.0469971
0.0575167;-0.045166
0.0575333;-0.0430298
0.05755;-0.0405884
0.0575667;-0.038147
0.0575833;-0.0354004
0.0576;-0.0326538
0.0576167;-0.0302124
0.0576333;-0.027771
0.05765;-0.0256348
0.0576667;-0.0234985
0.0576833;-0.0219727
0.0577;-0.020752
0.0577167;-0.0198364
0.0577333;-0.0189209
0.05775;-0.0183105
0.0577667;-0.0177002
0.0577833;-0.0164795
0.0578;-0.0149536
0.0578167;-0.0131226
0.0578333;-0.0112915
0.05785;-0.0088501
0.0578667;-0.00701904
0.0578833;-0.00457764
0.0579;-0.00244141
0.0579167;-0.000305176
0.0579333;0.00183105
0.05795;0.00335693
0.0579667;0.00457764
0.0579833;0.00549316
0.058;0.00579834
0.0580167;0.00549316
0.0580333;0.00457764
0.05805;0.00335693
0.0580667;0.00152588
0.0580833;-0.000305176
0.0581;-0.00213623
0.0581167;-0.00335693
0.0581333;-0.00396729
0.05815;-0.00457764
0.0581667;-0.00518799
0.0581833;-0.00610352
0.0582;-0.00762939
0.0582167;-0.0100708
0.0582333;-0.0128174
0.05825;-0.0152588
0.0582667;-0.0170898
0.0582833;-0.0186157
0.0583;-0.0192261
0.0583167;-0.0192261
0.0583333;-0.0189209
0.05835;-0.0183105
0.0583667;-0.0177002
0.0583833;-0.0170898
0.0584;-0.0152588
0.0584167;-0.0131226
0.0584333;-0.0100708
0.05845;-0.00640869
0.0584667;-0.00244141
0.0584833;0.0012207
0.0585;0.00457764
0.0585167;0.00793457
0.0585333;0.010376
0.05855;0.012207
0.0585667;0.0134277
0.0585833;0.0140381
0.0586;0.0143433
0.0586167;0.0149536
0.0586333;0.0158691
0.05865;0.0177002
0.0586667;0.0198364
0.0586833;0.022583
0.0587;0.0247192
0.0587167;0.0259399
0.0587333;0.0262451
0.05875;0.0250244
0.0587667;0.0234985
0.0587833;0.0213623
0.0588;0.0189209
0.0588167;0.0161743
0.0588333;0.0131226
0.05885;0.0100708
0.0588667;0.00732422
0.0588833;0.00488281
0.0589;0.00305176
0.0589167;0.00152588
0.0589333;0.000610352
0.05895;0
0.0589667;-0.000610352
0.0589833;-0.000915527
0.059;-0.00183105
0.0590167;-0.00335693
0.0590333;-0.00549316
0.05905;-0.00823975
0.0590667;-0.0106812
0.0590833;-0.0125122
0.0591;-0.0137329
0.0591167;-0.0143433
0.0591333;-0.0143433
0.05915;-0.0140381
0.0591667;-0.0134277
0.0591833;-0.0128174
0.0592;-0.0119019
0.0592167;-0.0112915
0.0592333;-0.010376
0.05925;-0.00915527
0.0592667;-0.00762939
0.0592833;-0.00640869
0.0593;-0.00518799
0.0593167;-0.00396729
0.0593333;-0.00366211
0.05935;-0.00396729
0.0593667;-0.00488281
0.0593833;-0.00671387
0.0594;-0.00823975
0.0594167;-0.00854492
0.0594333;-0.00793457
0.05945;-0.00579834
0.0594667;-0.00305176
0.0594833;0
0.0595;0.00244141
0.0595167;0.00488281
0.0595333;0.00640869
0.05955;0.00793457
0.0595667;0.00946045
0.0595833;0.0109863
0.0596;0.0125122
0.0596167;0.0149536
0.0596333;0.017395
0.05965;0.0198364
0.0596667;0.0216675
0.0596833;0.022583
0.0597;0.0222778
0.0597167;0.020752
0.0597333;0.0177002
0.05975;0.0137329
0.0597667;0.00946045
0.0597833;0.00518799
0.0598;0.0012207
0.0598167;-0.00213623
0.0598333;-0.00549316
0.05985;-0.0088501
0.0598667;-0.012207
0.0598833;-0.015564
0.0599;-0.0192261
0.0599167;-0.022583
0.0599333;-0.0250244
0.05995;-0.0262451
0.0599667;-0.0259399
0.0599833;-0.0247192
0.06;-0.022583
0.0600167;-0.0201416
0.0600333;-0.0177002
0.06005;-0.0149536
0.0600667;-0.012207
0.0600833;-0.00915527
0.0601;-0.00488281
0.0601167;0.000610352
0.0601333;0.00640869
0.06015;0.0125122
0.0601667;0.0183105
0.0601833;0.0234985
0.0602;0.027771
0.0602167;0.0311279
0.0602333;0.0335693
0.06025;0.0354004
0.0602667;0.0369263
0.0602833;0.038147
0.0603;0.0396729
0.0603167;0.0408936
0.0603333;0.0421143
0.06035;0.0430298
0.0603667;0.0439453
0.0603833;0.045166
0.0604;0.0466919
0.0604167;0.0482178
0.0604333;0.0488281
0.06045;0.0485229
0.0604667;0.0466919
0.0604833;0.0442505
0.0605;0.0408936
0.0605167;0.0375366
0.0605333;0.0341797
0.06055;0.0311279
0.0605667;0.0280762
0.0605833;0.0247192
0.0606;0.0213623
0.0606167;0.0183105
0.0606333;0.0149536
0.06065;0.0115967
0.0606667;0.00732422
0.0606833;0.00305176
0.0607;-0.00152588
0.0607167;-0.00610352
0.0607333;-0.010376
0.06075;-0.0146484
0.0607667;-0.0186157
0.0607833;-0.0222778
0.0608;-0.0256348
0.0608167;-0.0289917
0.0608333;-0.0323486
0.06085;-0.0354004
0.0608667;-0.0378418
0.0608833;-0.0396729
0.0609;-0.0415039
0.0609167;-0.043335
0.0609333;-0.0445557
0.06095;-0.0454712
0.0609667;-0.0457764
0.0609833;-0.0460815
0.061;-0.0460815
0.0610167;-0.0457764
0.0610333;-0.0454712
0.06105;-0.045166
0.0610667;-0.0448608
0.0610833;-0.0448608
0.0611;-0.0448608
0.0611167;-0.045166
0.0611333;-0.0454712
0.06115;-0.0457764
0.0611667;-0.0454712
0.0611833;-0.045166
0.0612;-0.0448608
0.0612167;-0.0448608
0.0612333;-0.045166
0.06125;-0.0457764
0.0612667;-0.0463867
0.0612833;-0.0466919
0.0613;-0.0469971
0.0613167;-0.0466919
0.0613333;-0.0460815
0.06135;-0.0457764
0.0613667;-0.0454712
0.0613833;-0.0454712
0.0614;-0.0460815
0.0614167;-0.0469971
0.0614333;-0.0482178
0.06145;-0.0491333
0.0614667;-0.0497437
0.0614833;-0.050354
0.0615;-0.0512695
0.0615167;-0.0521851
0.0615333;-0.0527954
0.06155;-0.0534058
0.0615667;-0.0537109
0.0615833;-0.0540161
0.0616;-0.0540161
0.0616167;-0.0546265
0.0616333;-0.0552368
0.06165;-0.0561523
0.0616667;-0.0567627
0.0616833;-0.0567627
0.0617;-0.0561523
0.0617167;-0.0549316
0.0617333;-0.0537109
0.06175;-0.0531006
0.0617667;-0.0527954
0.0617833;-0.0521851
0.0618;-0.0515747
0.0618167;-0.050354
0.0618333;-0.0491333
0.06185;-0.0476074
0.0618667;-0.0463867
0.0618833;-0.045166
0.0619;-0.0439453
0.0619167;-0.0430298
0.0619333;-0.0424194
0.06195;-0.0424194
0.0619667;-0.0418091
0.0619833;-0.0411987
0.062;-0.039978
0.0620167;-0.0387573
0.0620333;-0.0375366
0.06205;-0.0363159
0.0620667;-0.03479
0.0620833;-0.0326538
0.0621;-0.0302124
0.0621167;-0.0271606
0.0621333;-0.0234985
0.06215;-0.0198364
0.0621667;-0.0167847
0.0621833;-0.0140381
0.0622;-0.012207
0.0622167;-0.010376
0.0622333;-0.00793457
0.06225;-0.00488281
0.0622667;-0.000610352
0.0622833;0.00488281
0.0623;0.012207
0.0623167;0.0216675
0.0623333;0.032959
0.06235;0.0460815
0.0623667;0.0601196
0.0623833;0.0747681
0.0624;0.0894165
0.0624167;0.104675
0.0624333;0.121155
0.06245;0.13855
0.0624667;0.157471
0.0624833;0.177307
0.0625;0.198669
0.0625167;0.220642
0.0625333;0.24353
0.06255;0.267029
0.0625667;0.291138
0.0625833;0.315857
0.0626;0.340576
0.0626167;0.36499
0.0626333;0.387573
0.06265;0.40741
0.0626667;0.423584
0.0626833;0.435181
0.0627;0.441895
0.0627167;0.44342
0.0627333;0.440369
0.06275;0.43335
0.0627667;0.422668
0.0627833;0.409546
0.0628;0.393066
0.0628167;0.372314
0.0628333;0.34729
0.06285;0.316772
0.0628667;0.281372
0.0628833;0.241089
0.0629;0.196838
0.0629167;0.149536
0.0629333;0.100708
0.06295;0.0512695
0.0629667;0.00244141
0.0629833;-0.045166
0.063;-0.0906372
0.0630167;-0.133057
0.0630333;-0.171814
0.06305;-0.206604
0.0630667;-0.237122
0.0630833;-0.263672
0.0631;-0.285645
0.0631167;-0.30304
0.0631333;-0.316162
0.06315;-0.324707
0.0631667;-0.329285
0.0631833;-0.329895
0.0632;-0.327148
0.0632167;-0.321655
0.0632333;-0.313721
0.06325;-0.30365
0.0632667;-0.291443
0.0632833;-0.277405
0.0633;-0.26123
0.0633167;-0.243835
0.0633333;-0.22583
0.06335;-0.207214
0.0633667;-0.188599
0.0633833;-0.170898
0.0634;-0.153809
0.0634167;-0.137634
0.0634333;-0.122681
0.06345;-0.108643
0.0634667;-0.0958252
0.0634833;-0.0839233
0.0635;-0.0723267
0.0635167;-0.0610352
0.0635333;-0.0509644
0.06355;-0.0421143
0.0635667;-0.03479
0.0635833;-0.0286865
0.0636;-0.0231934
0.0636167;-0.0183105
0.0636333;-0.0137329
0.06365;-0.00976562
0.0636667;-0.00732422
0.0636833;-0.00579834
0.0637;-0.00610352
0.0637167;-0.00793457
0.0637333;-0.0106812
0.06375;-0.0137329
0.0637667;-0.0167847
0.0637833;-0.0195312
0.0638;-0.0213623
0.0638167;-0.0228882
0.0638333;-0.0238037
0.06385;-0.0234985
0.0638667;-0.0219727
0.0638833;-0.0192261
0.0639;-0.0161743
0.0639167;-0.0128174
0.0639333;-0.00946045
0.06395;-0.00671387
0.0639667;-0.00457764
0.0639833;-0.00274658
0.064;-0.0012207
0.0640167;0.000305176
0.0640333;0.00152588
0.06405;0.00274658
0.0640667;0.00366211
0.0640833;0.00488281
0.0641;0.00579834
0.0641167;0.00671387
0.0641333;0.00793457
0.06415;0.00946045
0.0641667;0.0115967
0.0641833;0.0134277
0.0642;0.0146484
0.0642167;0.0146484
0.0642333;0.0140381
0.06425;0.0134277
0.0642667;0.0125122
0.0642833;0.0112915
0.0643;0.0100708
0.0643167;0.00854492
0.0643333;0.00762939
0.06435;0.00732422
0.0643667;0.00854492
0.0643833;0.0106812
0.0644;0.0134277
0.0644167;0.0167847
0.0644333;0.0198364
0.06445;0.0222778
0.0644667;0.0244141
0.0644833;0.0259399
0.0645;0.0271606
0.0645167;0.027771
0.0645333;0.0283813
0.06455;0.0280762
0.0645667;0.0274658
0.0645833;0.0262451
0.0646;0.0247192
0.0646167;0.022583
0.0646333;0.0213623
0.06465;0.020752
0.0646667;0.020752
0.0646833;0.020752
0.0647;0.0204468
0.0647167;0.0195312
0.0647333;0.0186157
0.06475;0.0177002
0.0647667;0.017395
0.0647833;0.017395
0.0648;0.0177002
0.0648167;0.0180054
0.0648333;0.0186157
0.06485;0.0195312
0.0648667;0.0204468
0.0648833;0.0222778
0.0649;0.0241089
0.0649167;0.0265503
0.0649333;0.0292969
0.06495;0.0317383
0.0649667;0.0341797
0.0649833;0.0366211
0.065;0.0390625
0.0650167;0.0411987
0.0650333;0.0436401
0.06505;0.0457764
0.0650667;0.0473022
0.0650833;0.0479126
0.0651;0.0482178
0.0651167;0.0479126
0.0651333;0.0476074
0.06515;0.0476074
0.0651667;0.0479126
0.0651833;0.0482178
0.0652;0.0488281
0.0652167;0.0491333
0.0652333;0.0494385
0.06525;0.0494385
0.0652667;0.0491333
0.0652833;0.0488281
0.0653;0.0491333
0.0653167;0.0497437
0.0653333;0.0509644
0.06535;0.0524902
0.0653667;0.0537109
0.0653833;0.0549316
0.0654;0.0558472
0.0654167;0.0561523
0.0654333;0.0564575
0.06545;0.0561523
0.0654667;0.0561523
0.0654833;0.0564575
0.0655;0.0570679
0.0655167;0.0576782
0.0655333;0.0579834
0.06555;0.0576782
0.0655667;0.0576782
0.0655833;0.0576782
0.0656;0.0576782
0.0656167;0.0576782
0.0656333;0.0576782
0.06565;0.057373
0.0656667;0.0570679
0.0656833;0.0567627
0.0657;0.0564575
0.0657167;0.0564575
0.0657333;0.0567627
0.06575;0.0579834
0.0657667;0.0601196
0.0657833;0.0631714
0.0658;0.0662231
0.0658167;0.0692749
0.0658333;0.0717163
0.06585;0.0750732
0.0658667;0.0790405
0.0658833;0.0836182
0.0659;0.0891113
0.0659167;0.0946045
0.0659333;0.0997925
0.06595;0.10437
0.0659667;0.108337
0.0659833;0.111694
0.066;0.114746
0.0660167;0.116882
0.0660333;0.118408
0.06605;0.119324
0.0660667;0.119629
0.0660833;0.119019
0.0661;0.118103
0.0661167;0.116882
0.0661333;0.115662
0.06615;0.113831
0.0661667;0.111389
0.0661833;0.108337
0.0662;0.10498
0.0662167;0.101624
0.0662333;0.0985718
0.06625;0.0961304
0.0662667;0.0949097
0.0662833;0.0946045
0.0663;0.0952148
0.0663167;0.0964355
0.0663333;0.0985718
0.06635;0.101624
0.0663667;0.105286
0.0663833;0.109253
0.0664;0.11322
0.0664167;0.117493
0.0664333;0.121765
0.06645;0.126038
0.0664667;0.13031
0.0664833;0.134583
0.0665;0.13855
0.0665167;0.141602
0.0665333;0.144043
0.06655;0.144958
0.0665667;0.144958
0.0665833;0.143433
0.0666;0.140991
0.0666167;0.13855
0.0666333;0.136108
0.06665;0.134277
0.0666667;0.133362
0.0666833;0.133057
0.0667;0.133057
0.0667167;0.132751
0.0667333;0.132141
0.06675;0.131226
0.0667667;0.13031
0.0667833;0.129395
0.0668;0.129089
0.0668167;0.129089
0.0668333;0.129089
0.06685;0.129395
0.0668667;0.129395
0.0668833;0.1297
0.0669;0.130005
0.0669167;0.13031
0.0669333;0.13092
0.06695;0.131226
0.0669667;0.130615
0.0669833;0.129395
0.067;0.127563
0.0670167;0.124817
0.0670333;0.121765
0.06705;0.117798
0.0670667;0.11322
0.0670833;0.107422
0.0671;0.101318
0.0671167;0.0952148
0.0671333;0.0894165
0.06715;0.0845337
0.0671667;0.0799561
0.0671833;0.0756836
0.0672;0.0726318
0.0672167;0.0701904
0.0672333;0.0686646
0.06725;0.0674438
0.0672667;0.0668335
0.0672833;0.0665283
0.0673;0.0668335
0.0673167;0.0674438
0.0673333;0.067749
0.06735;0.067749
0.0673667;0.0671387
0.0673833;0.065918
0.0674;0.0637817
0.0674167;0.0610352
0.0674333;0.0579834
0.06745;0.0552368
0.0674667;0.0524902
0.0674833;0.0497437
0.0675;0.0469971
0.0675167;0.0436401
0.0675333;0.0393677
0.06755;0.0338745
0.0675667;0.0280762
0.0675833;0.0222778
0.0676;0.0170898
0.0676167;0.0125122
0.0676333;0.0088501
0.06765;0.00640869
0.0676667;0.00457764
0.0676833;0.00366211
0.0677;0.00366211
0.0677167;0.00457764
0.0677333;0.00610352
0.06775;0.00793457
0.0677667;0.010376
0.0677833;0.0128174
0.0678;0.0149536
0.0678167;0.0177002
0.0678333;0.0204468
0.06785;0.0231934
0.0678667;0.0253296
0.0678833;0.0268555
0.0679;0.027771
0.0679167;0.027771
0.0679333;0.0268555
0.06795;0.0253296
0.0679667;0.022583
0.0679833;0.0192261
0.068;0.0149536
0.0680167;0.0100708
0.0680333;0.00488281
0.06805;-0.000305176
0.0680667;-0.00518799
0.0680833;-0.00976562
0.0681;-0.0134277
0.0681167;-0.0167847
0.0681333;-0.0192261
0.06815;-0.020752
0.0681667;-0.0216675
0.0681833;-0.0219727
0.0682;-0.0219727
0.0682167;-0.0219727
0.0682333;-0.0222778
0.06825;-0.0222778
0.0682667;-0.0222778
0.0682833;-0.0213623
0.0683;-0.0201416
0.0683167;-0.0183105
0.0683333;-0.0158691
0.06835;-0.0131226
0.0683667;-0.010376
0.0683833;-0.00762939
0.0684;-0.00579834
0.0684167;-0.00549316
0.0684333;-0.00610352
0.06845;-0.00793457
0.0684667;-0.00976562
0.0684833;-0.0112915
0.0685;-0.0115967
0.0685167;-0.0106812
0.0685333;-0.00854492
0.06855;-0.00610352
0.0685667;-0.00335693
0.0685833;-0.000915527
0.0686;0.0012207
0.0686167;0.00274658
0.0686333;0.00427246
0.06865;0.00579834
0.0686667;0.00732422
0.0686833;0.0088501
0.0687;0.0100708
0.0687167;0.0112915
0.0687333;0.012207
0.06875;0.0128174
0.0687667;0.0134277
0.0687833;0.0137329
0.0688;0.0143433
0.0688167;0.0146484
0.0688333;0.0143433
0.06885;0.0140381
0.0688667;0.0137329
0.0688833;0.0137329
0.0689;0.0140381
0.0689167;0.0137329
0.0689333;0.0134277
0.06895;0.0125122
0.0689667;0.0112915
0.0689833;0.0106812
0.069;0.010376
0.0690167;0.0106812
0.0690333;0.0115967
0.06905;0.0125122
0.0690667;0.0137329
0.0690833;0.0149536
0.0691;0.0158691
0.0691167;0.0164795
0.0691333;0.0164795
0.06915;0.0164795
0.0691667;0.0164795
0.0691833;0.0161743
0.0692;0.0161743
0.0692167;0.015564
0.0692333;0.0146484
0.06925;0.0134277
0.0692667;0.0115967
0.0692833;0.00915527
0.0693;0.00640869
0.0693167;0.00305176
0.0693333;0
0.06935;-0.00183105
0.0693667;-0.00244141
0.0693833;-0.0012207
0.0694;0.000915527
0.0694167;0.00396729
0.0694333;0.00701904
0.06945;0.00976562
0.0694667;0.0119019
0.0694833;0.0140381
0.0695;0.0158691
0.0695167;0.0177002
0.0695333;0.0192261
0.06955;0.0210571
0.0695667;0.0231934
0.0695833;0.0253296
0.0696;0.027771
0.0696167;0.0302124
0.0696333;0.0323486
0.06965;0.0335693
0.0696667;0.0338745
0.0696833;0.0332642
0.0697;0.0323486
0.0697167;0.0314331
0.0697333;0.0308228
0.06975;0.0302124
0.0697667;0.0292969
0.0697833;0.0286865
0.0698;0.0274658
0.0698167;0.0259399
0.0698333;0.0238037
0.06985;0.0219727
0.0698667;0.0198364
0.0698833;0.0180054
0.0699;0.0164795
0.0699167;0.0152588
0.0699333;0.0143433
0.06995;0.0140381
0.0699667;0.0134277
0.0699833;0.0128174
0.07;0.012207
0.0700167;0.0112915
0.0700333;0.0100708
0.07005;0.0088501
0.0700667;0.00732422
0.0700833;0.00579834
0.0701;0.00427246
0.0701167;0.00274658
0.0701333;0.00152588
0.07015;0.000305176
0.0701667;-0.000610352
0.0701833;-0.0012207
0.0702;-0.00152588
0.0702167;-0.0012207
0.0702333;-0.000305176
0.07025;0.000610352
0.0702667;0.00152588
0.0702833;0.00152588
0.0703;0.0012207
0.0703167;0.000305176
0.0703333;-0.000915527
0.07035;-0.00213623
0.0703667;-0.00366211
0.0703833;-0.00488281
0.0704;-0.00579834
0.0704167;-0.00671387
0.0704333;-0.00823975
0.07045;-0.00976562
0.0704667;-0.0112915
0.0704833;-0.0137329
0.0705;-0.0161743
0.0705167;-0.0195312
0.0705333;-0.0228882
0.07055;-0.0262451
0.0705667;-0.0286865
0.0705833;-0.0296021
0.0706;-0.0286865
0.0706167;-0.0265503
0.0706333;-0.0234985
0.07065;-0.0204468
0.0706667;-0.0180054
0.0706833;-0.0161743
0.0707;-0.0149536
0.0707167;-0.0134277
0.0707333;-0.0119019
0.07075;-0.010376
0.0707667;-0.0088501
0.0707833;-0.00762939
0.0708;-0.00610352
0.0708167;-0.00427246
0.0708333;-0.00274658
0.07085;-0.00183105
0.0708667;-0.0012207
0.0708833;-0.000915527
0.0709;-0.000610352
0.0709167;-0.000305176
0.0709333;0
0.07095;0
0.0709667;0.000305176
0.0709833;0.000610352
0.071;0.00152588
0.0710167;0.00274658
0.0710333;0.00488281
0.07105;0.00701904
0.0710667;0.00915527
0.0710833;0.0119019
0.0711;0.0146484
0.0711167;0.017395
0.0711333;0.0198364
0.07115;0.0222778
0.0711667;0.0244141
0.0711833;0.0262451
0.0712;0.0271606
0.0712167;0.0280762
0.0712333;0.0289917
0.07125;0.0296021
0.0712667;0.0305176
0.0712833;0.0314331
0.0713;0.0317383
0.0713167;0.0317383
0.0713333;0.0314331
0.07135;0.0311279
0.0713667;0.0308228
0.0713833;0.0305176
0.0714;0.0302124
0.0714167;0.0299072
0.0714333;0.0296021
0.07145;0.0289917
0.0714667;0.0286865
0.0714833;0.0283813
0.0715;0.0280762
0.0715167;0.027771
0.0715333;0.0271606
0.07155;0.0259399
0.0715667;0.0238037
0.0715833;0.0204468
0.0716;0.0161743
0.0716167;0.0112915
0.0716333;0.00610352
0.07165;0.000610352
0.0716667;-0.00549316
0.0716833;-0.0112915
0.0717;-0.0177002
0.0717167;-0.0241089
0.0717333;-0.0305176
0.07175;-0.0363159
0.0717667;-0.0411987
0.0717833;-0.045166
0.0718;-0.0482178
0.0718167;-0.0506592
0.0718333;-0.0521851
0.07185;-0.0537109
0.0718667;-0.0546265
0.0718833;-0.055542
0.0719;-0.0558472
0.0719167;-0.0558472
0.0719333;-0.0552368
0.07195;-0.0537109
0.0719667;-0.0518799
0.0719833;-0.0494385
0.072;-0.0473022
0.0720167;-0.045166
0.0720333;-0.0436401
0.07205;-0.0430298
0.0720667;-0.0430298
0.0720833;-0.043335
0.0721;-0.0436401
0.0721167;-0.0445557
0.0721333;-0.0457764
0.07215;-0.0476074
0.0721667;-0.0497437
0.0721833;-0.0527954
0.0722;-0.0561523
0.0722167;-0.0592041
0.0722333;-0.0619507
0.07225;-0.0643921
0.0722667;-0.065918
0.0722833;-0.0671387
0.0723;-0.067749
0.0723167;-0.0683594
0.0723333;-0.0686646
0.07235;-0.0689697
0.0723667;-0.0686646
0.0723833;-0.0680542
0.0724;-0.0671387
0.0724167;-0.065918
0.0724333;-0.0643921
0.07245;-0.0628662
0.0724667;-0.0610352
0.0724833;-0.0592041
0.0725;-0.0576782
0.0725167;-0.0567627
0.0725333;-0.055542
0.07255;-0.0543213
0.0725667;-0.0524902
0.0725833;-0.0509644
0.0726;-0.0500488
0.0726167;-0.0500488
0.0726333;-0.0515747
0.07265;-0.0534058
0.0726667;-0.0558472
0.0726833;-0.0579834
0.0727;-0.0598145
0.0727167;-0.0613403
0.0727333;-0.0634766
0.07275;-0.065918
0.0727667;-0.0683594
0.0727833;-0.071106
0.0728;-0.0732422
0.0728167;-0.0747681
0.0728333;-0.0753784
0.07285;-0.0750732
0.0728667;-0.0738525
0.0728833;-0.072937
0.0729;-0.0720215
0.0729167;-0.0717163
0.0729333;-0.0717163
0.07295;-0.0714111
0.0729667;-0.0704956
0.0729833;-0.0689697
0.073;-0.0668335
0.0730167;-0.0640869
0.0730333;-0.0613403
0.07305;-0.0582886
0.0730667;-0.0552368
0.0730833;-0.0524902
0.0731;-0.0497437
0.0731167;-0.0469971
0.0731333;-0.0442505
0.07315;-0.0415039
0.0731667;-0.0387573
0.0731833;-0.0360107
0.0732;-0.0335693
0.0732167;-0.0314331
0.0732333;-0.0296021
0.07325;-0.0274658
0.0732667;-0.0247192
0.0732833;-0.0210571
0.0733;-0.0152588
0.0733167;-0.00793457
0.0733333;0.000915527
0.07335;0.0109863
0.0733667;0.0213623
0.0733833;0.0317383
0.0734;0.0427246
0.0734167;0.0537109
0.0734333;0.065918
0.07345;0.0796509
0.0734667;0.0952148
0.0734833;0.112
0.0735;0.13031
0.0735167;0.149231
0.0735333;0.168152
0.07355;0.187073
0.0735667;0.205994
0.0735833;0.22522
0.0736;0.245972
0.0736167;0.26825
0.0736333;0.292053
0.07365;0.316772
0.0736667;0.340881
0.0736833;0.362854
0.0737;0.380859
0.0737167;0.393982
0.0737333;0.401611
0.07375;0.403748
0.0737667;0.401001
0.0737833;0.393982
0.0738;0.383301
0.0738167;0.369263
0.0738333;0.351562
0.07385;0.329285
0.0738667;0.301819
0.0738833;0.26825
0.0739;0.228577
0.0739167;0.183411
0.0739333;0.133972
0.07395;0.0811768
0.0739667;0.0262451
0.0739833;-0.0296021
0.074;-0.0848389
0.0740167;-0.13855
0.0740333;-0.189819
0.07405;-0.237122
0.0740667;-0.279846
0.0740833;-0.318298
0.0741;-0.351562
0.0741167;-0.379639
0.0741333;-0.401917
0.07415;-0.418091
0.0741667;-0.428467
0.0741833;-0.43335
0.0742;-0.43335
0.0742167;-0.428467
0.0742333;-0.419312
0.07425;-0.406494
0.0742667;-0.39032
0.0742833;-0.371094
0.0743;-0.349731
0.0743167;-0.326843
0.0743333;-0.30365
0.07435;-0.280762
0.0743667;-0.258484
0.0743833;-0.237122
0.0744;-0.21698
0.0744167;-0.197754
0.0744333;-0.179749
0.07445;-0.162964
0.0744667;-0.147705
0.0744833;-0.134277
0.0745;-0.122375
0.0745167;-0.111694
0.0745333;-0.101624
0.07455;-0.0921631
0.0745667;-0.083313
0.0745833;-0.0750732
0.0746;-0.0671387
0.0746167;-0.0604248
0.0746333;-0.0543213
0.07465;-0.0497437
0.0746667;-0.0460815
0.0746833;-0.0436401
0.0747;-0.0424194
0.0747167;-0.0418091
0.0747333;-0.0418091
0.07475;-0.0415039
0.0747667;-0.0411987
0.0747833;-0.0402832
0.0748;-0.0396729
0.0748167;-0.0396729
0.0748333;-0.039978
0.07485;-0.0402832
0.0748667;-0.0411987
0.0748833;-0.0427246
0.0749;-0.0448608
0.0749167;-0.0469971
0.0749333;-0.0488281
0.07495;-0.0497437
0.0749667;-0.0500488
0.0749833;-0.0497437
0.075;-0.0494385
0.0750167;-0.0488281
0.0750333;-0.0482178
0.07505;-0.0476074
0.0750667;-0.0476074
0.0750833;-0.0469971
0.0751;-0.0463867
0.0751167;-0.0448608
0.0751333;-0.0427246
0.07515;-0.0402832
0.0751667;-0.038147
0.0751833;-0.0363159
0.0752;-0.03479
0.0752167;-0.0332642
0.0752333;-0.0317383
0.07525;-0.0299072
0.0752667;-0.027771
0.0752833;-0.0259399
0.0753;-0.0238037
0.0753167;-0.0222778
0.0753333;-0.0210571
0.07535;-0.0198364
0.0753667;-0.0186157
0.0753833;-0.0177002
0.0754;-0.0164795
0.0754167;-0.015564
0.0754333;-0.0152588
0.07545;-0.0152588
0.0754667;-0.015564
0.0754833;-0.0164795
0.0755;-0.0180054
0.0755167;-0.0198364
0.0755333;-0.0219727
0.07555;-0.0241089
0.0755667;-0.0265503
0.0755833;-0.0292969
0.0756;-0.0314331
0.0756167;-0.0332642
0.0756333;-0.0335693
0.07565;-0.0326538
0.0756667;-0.0299072
0.0756833;-0.0262451
0.0757;-0.0222778
0.0757167;-0.0183105
0.0757333;-0.0146484
0.07575;-0.0115967
0.0757667;-0.0088501
0.0757833;-0.00610352
0.0758;-0.00305176
0.0758167;0.000305176
0.0758333;0.00366211
0.07585;0.00671387
0.0758667;0.00946045
0.0758833;0.0119019
0.0759;0.0143433
0.0759167;0.0164795
0.0759333;0.0186157
0.07595;0.0204468
0.0759667;0.0213623
0.0759833;0.0213623
0.076;0.020752
0.0760167;0.0192261
0.0760333;0.0170898
0.07605;0.0149536
0.0760667;0.0131226
0.0760833;0.0115967
0.0761;0.0109863
0.0761167;0.0109863
0.0761333;0.0119019
0.07615;0.0134277
0.0761667;0.0152588
0.0761833;0.0170898
0.0762;0.0189209
0.0762167;0.0204468
0.0762333;0.0216675
0.07625;0.0228882
0.0762667;0.0241089
0.0762833;0.0256348
0.0763;0.0268555
0.0763167;0.0283813
0.0763333;0.0292969
0.07635;0.0302124
0.0763667;0.0305176
0.0763833;0.0305176
0.0764;0.0305176
0.0764167;0.0305176
0.0764333;0.0311279
0.07645;0.0314331
0.0764667;0.0317383
0.0764833;0.0320435
0.0765;0.0323486
0.0765167;0.0332642
0.0765333;0.0344849
0.07655;0.0363159
0.0765667;0.0387573
0.0765833;0.0418091
0.0766;0.045166
0.0766167;0.0491333
0.0766333;0.0531006
0.07665;0.057373
0.0766667;0.0619507
0.0766833;0.0662231
0.0767;0.0701904
0.0767167;0.0735474
0.0767333;0.0762939
0.07675;0.0793457
0.0767667;0.0823975
0.0767833;0.0857544
0.0768;0.0891113
0.0768167;0.0918579
0.0768333;0.0933838
0.07685;0.0939941
0.0768667;0.093689
0.0768833;0.0924683
0.0769;0.0912476
0.0769167;0.090332
0.0769333;0.090332
0.07695;0.0912476
0.0769667;0.0924683
0.0769833;0.0942993
0.077;0.0958252
0.0770167;0.0976562
0.0770333;0.0997925
0.07705;0.102539
0.0770667;0.105591
0.0770833;0.108948
0.0771;0.11261
0.0771167;0.116882
0.0771333;0.121155
0.07715;0.125732
0.0771667;0.130615
0.0771833;0.136108
0.0772;0.141296
0.0772167;0.146179
0.0772333;0.150146
0.07725;0.153503
0.0772667;0.15564
0.0772833;0.157166
0.0773;0.157776
0.0773167;0.157471
0.0773333;0.155945
0.07735;0.153809
0.0773667;0.151367
0.0773833;0.149231
0.0774;0.147095
0.0774167;0.145569
0.0774333;0.144958
0.07745;0.144958
0.0774667;0.144958
0.0774833;0.144653
0.0775;0.143738
0.0775167;0.142822
0.0775333;0.141602
0.07755;0.140991
0.0775667;0.140686
0.0775833;0.141602
0.0776;0.142517
0.0776167;0.144043
0.0776333;0.145264
0.07765;0.146484
0.0776667;0.147705
0.0776833;0.149231
0.0777;0.151062
0.0777167;0.152588
0.0777333;0.154114
0.07775;0.155334
0.0777667;0.156555
0.0777833;0.157471
0.0778;0.157776
0.0778167;0.158081
0.0778333;0.157776
0.07785;0.157471
0.0778667;0.157166
0.0778833;0.157471
0.0779;0.158081
0.0779167;0.158691
0.0779333;0.159607
0.07795;0.160217
0.0779667;0.160522
0.0779833;0.161133
0.078;0.161743
0.0780167;0.162048
0.0780333;0.162048
0.07805;0.161438
0.0780667;0.160828
0.0780833;0.159912
0.0781;0.159302
0.0781167;0.158691
0.0781333;0.158386
0.07815;0.157471
0.0781667;0.15625
0.0781833;0.154419
0.0782;0.152588
0.0782167;0.150757
0.0782333;0.148621
0.07825;0.146179
0.0782667;0.143433
0.0782833;0.140381
0.0783;0.137329
0.0783167;0.134277
0.0783333;0.131226
0.07835;0.128174
0.0783667;0.124817
0.0783833;0.120544
0.0784;0.115662
0.0784167;0.110168
0.0784333;0.10376
0.07845;0.0976562
0.0784667;0.0918579
0.0784833;0.0872803
0.0785;0.0836182
0.0785167;0.0808716
0.0785333;0.0784302
0.07855;0.0765991
0.0785667;0.0753784
0.0785833;0.0747681
0.0786;0.0744629
0.0786167;0.0744629
0.0786333;0.0747681
0.07865;0.0750732
0.0786667;0.0753784
0.0786833;0.0756836
0.0787;0.0753784
0.0787167;0.0753784
0.0787333;0.0744629
0.07875;0.072937
0.0787667;0.0708008
0.0787833;0.0692749
0.0788;0.067749
0.0788167;0.0668335
0.0788333;0.065918
0.07885;0.0650024
0.0788667;0.0637817
0.0788833;0.062561
0.0789;0.0610352
0.0789167;0.0588989
0.0789333;0.0564575
0.07895;0.0540161
0.0789667;0.0521851
0.0789833;0.0500488
0.079;0.0482178
0.0790167;0.0463867
0.0790333;0.0445557
0.07905;0.0430298
0.0790667;0.0430298
0.0790833;0.0439453
0.0791;0.0457764
0.0791167;0.0482178
0.0791333;0.0509644
0.07915;0.0537109
0.0791667;0.0558472
0.0791833;0.057373
0.0792;0.0585938
0.0792167;0.0595093
0.0792333;0.0604248
0.07925;0.0613403
0.0792667;0.062561
0.0792833;0.0637817
0.0793;0.0653076
0.0793167;0.0671387
0.0793333;0.0692749
0.07935;0.071106
0.0793667;0.0735474
0.0793833;0.0759888
0.0794;0.0790405
0.0794167;0.0823975
0.0794333;0.0857544
0.07945;0.0881958
0.0794667;0.0897217
0.0794833;0.090332
0.0795;0.0897217
0.0795167;0.0881958
0.0795333;0.0863647
0.07955;0.0845337
0.0795667;0.083313
0.0795833;0.0827026
0.0796;0.0827026
0.0796167;0.0839233
0.0796333;0.0857544
0.07965;0.088501
0.0796667;0.0915527
0.0796833;0.0946045
0.0797;0.0979614
0.0797167;0.101624
0.0797333;0.10498
0.07975;0.108337
0.0797667;0.111694
0.0797833;0.115356
0.0798;0.119934
0.0798167;0.125427
0.0798333;0.131226
0.07985;0.137024
0.0798667;0.142517
0.0798833;0.147095
0.0799;0.151062
0.0799167;0.154724
0.0799333;0.158081
0.07995;0.161133
0.0799667;0.163574
0.0799833;0.16571
0.08;0.166931
0.0800167;0.167542
0.0800333;0.167847
0.08005;0.168152
0.0800667;0.169067
0.0800833;0.170288
0.0801;0.171814
0.0801167;0.173645
0.0801333;0.175781
0.08015;0.178528
0.0801667;0.181885
0.0801833;0.186157
0.0802;0.19043
0.0802167;0.195312
0.0802333;0.19989
0.08025;0.204468
0.0802667;0.209045
0.0802833;0.213623
0.0803;0.218201
0.0803167;0.222473
0.0803333;0.226746
0.08035;0.230713
0.0803667;0.234375
0.0803833;0.237427
0.0804;0.240173
0.0804167;0.24231
0.0804333;0.24353
0.08045;0.244446
0.0804667;0.245056
0.0804833;0.245667
0.0805;0.246277
0.0805167;0.246887
0.0805333;0.247192
0.08055;0.247192
0.0805667;0.246887
0.0805833;0.246582
0.0806;0.246277
0.0806167;0.245972
0.0806333;0.245361
0.08065;0.244446
0.0806667;0.24292
0.0806833;0.241394
0.0807;0.239563
0.0807167;0.238647
0.0807333;0.238953
0.08075;0.240784
0.0807667;0.243835
0.0807833;0.247803
0.0808;0.25177
0.0808167;0.255432
0.0808333;0.258789
0.08085;0.26123
0.0808667;0.263672
0.0808833;0.266113
0.0809;0.269165
0.0809167;0.273132
0.0809333;0.277405
0.08095;0.282593
0.0809667;0.287476
0.0809833;0.292053
0.081;0.296021
0.0810167;0.299377
0.0810333;0.301819
0.08105;0.303955
0.0810667;0.305176
0.0810833;0.306091
0.0811;0.306396
0.0811167;0.306396
0.0811333;0.305176
0.08115;0.303345
0.0811667;0.300903
0.0811833;0.298462
0.0812;0.296021
0.0812167;0.293579
0.0812333;0.291138
0.08125;0.288696
0.0812667;0.28595
0.0812833;0.283203
0.0813;0.280151
0.0813167;0.277405
0.0813333;0.274963
0.08135;0.273438
0.0813667;0.272522
0.0813833;0.271912
0.0814;0.271301
0.0814167;0.270691
0.0814333;0.270386
0.08145;0.270691
0.0814667;0.271301
0.0814833;0.271912
0.0815;0.272522
0.0815167;0.273132
0.0815333;0.273132
0.08155;0.273132
0.0815667;0.272217
0.0815833;0.270996
0.0816;0.26886
0.0816167;0.265503
0.0816333;0.260925
0.08165;0.255737
0.0816667;0.250549
0.0816833;0.245667
0.0817;0.241699
0.0817167;0.238647
0.0817333;0.236511
0.08175;0.23468
0.0817667;0.232544
0.0817833;0.230408
0.0818;0.227966
0.0818167;0.226135
0.0818333;0.224304
0.08185;0.222778
0.0818667;0.221863
0.0818833;0.221252
0.0819;0.221558
0.0819167;0.222473
0.0819333;0.223694
0.08195;0.225525
0.0819667;0.227661
0.0819833;0.229797
0.082;0.231323
0.0820167;0.232849
0.0820333;0.234985
0.08205;0.237427
0.0820667;0.240479
0.0820833;0.24353
0.0821;0.246582
0.0821167;0.249023
0.0821333;0.25116
0.08215;0.252686
0.0821667;0.253906
0.0821833;0.254517
0.0822;0.254517
0.0822167;0.254517
0.0822333;0.253906
0.08225;0.253601
0.0822667;0.253296
0.0822833;0.252991
0.0823;0.25238
0.0823167;0.25177
0.0823333;0.25116
0.08235;0.249939
0.0823667;0.248413
0.0823833;0.245667
0.0824;0.242615
0.0824167;0.238953
0.0824333;0.234985
0.08245;0.230713
0.0824667;0.226135
0.0824833;0.221558
0.0825;0.216675
0.0825167;0.211487
0.0825333;0.206604
0.08255;0.202332
0.0825667;0.197754
0.0825833;0.193481
0.0826;0.189209
0.0826167;0.184937
0.0826333;0.180969
0.08265;0.177307
0.0826667;0.173645
0.0826833;0.169983
0.0827;0.166321
0.0827167;0.162354
0.0827333;0.157776
0.08275;0.153198
0.0827667;0.148315
0.0827833;0.143433
0.0828;0.13855
0.0828167;0.134277
0.0828333;0.130615
0.08285;0.127563
0.0828667;0.125732
0.0828833;0.124207
0.0829;0.123291
0.0829167;0.122681
0.0829333;0.121765
0.08295;0.121155
0.0829667;0.120544
0.0829833;0.119934
0.083;0.119019
0.0830167;0.118408
0.0830333;0.117493
0.08305;0.117493
0.0830667;0.117798
0.0830833;0.118713
0.0831;0.119324
0.0831167;0.119629
0.0831333;0.119324
0.08315;0.118408
0.0831667;0.117188
0.0831833;0.115967
0.0832;0.114746
0.0832167;0.112915
0.0832333;0.111084
0.08325;0.108948
0.0832667;0.106506
0.0832833;0.104065
0.0833;0.101318
0.0833167;0.0985718
0.0833333;0.09552
0.08335;0.0924683
0.0833667;0.0897217
0.0833833;0.0875854
0.0834;0.0854492
0.0834167;0.0839233
0.0834333;0.0820923
0.08345;0.0802612
0.0834667;0.078125
0.0834833;0.0753784
0.0835;0.0732422
0.0835167;0.071106
0.0835333;0.0698853
0.08355;0.0692749
0.0835667;0.0692749
0.0835833;0.0695801
0.0836;0.0695801
0.0836167;0.0695801
0.0836333;0.0701904
0.08365;0.0714111
0.0836667;0.0732422
0.0836833;0.0756836
0.0837;0.0778198
0.0837167;0.0802612
0.0837333;0.0817871
0.08375;0.083313
0.0837667;0.0839233
0.0837833;0.0842285
0.0838;0.0839233
0.0838167;0.0836182
0.0838333;0.0836182
0.08385;0.083313
0.0838667;0.0836182
0.0838833;0.0842285
0.0839;0.0845337
0.0839167;0.0848389
0.0839333;0.0848389
0.08395;0.0845337
0.0839667;0.0839233
0.0839833;0.0827026
0.084;0.0811768
0.0840167;0.0790405
0.0840333;0.0765991
0.08405;0.0735474
0.0840667;0.0701904
0.0840833;0.0674438
0.0841;0.0650024
0.0841167;0.0631714
0.0841333;0.0622559
0.08415;0.0619507
0.0841667;0.062561
0.0841833;0.0637817
0.0842;0.0656128
0.0842167;0.0683594
0.0842333;0.0717163
0.08425;0.0756836
0.0842667;0.0799561
0.0842833;0.0848389
0.0843;0.090332
0.0843167;0.0964355
0.0843333;0.104065
0.08435;0.112915
0.0843667;0.122986
0.0843833;0.134277
0.0844;0.14679
0.0844167;0.159912
0.0844333;0.173645
0.08445;0.187683
0.0844667;0.202026
0.0844833;0.216675
0.0845;0.231628
0.0845167;0.247498
0.0845333;0.264282
0.08455;0.282288
0.0845667;0.302734
0.0845833;0.324707
0.0846;0.348816
0.0846167;0.374756
0.0846333;0.401611
0.08465;0.429077
0.0846667;0.456848
0.0846833;0.484009
0.0847;0.508728
0.0847167;0.530396
0.0847333;0.548096
0.08475;0.560913
0.0847667;0.569458
0.0847833;0.573425
0.0848;0.57251
0.0848167;0.566711
0.0848333;0.555115
0.08485;0.537415
0.0848667;0.51239
0.0848833;0.480042
0.0849;0.439758
0.0849167;0.391541
0.0849333;0.336304
0.08495;0.274963
0.0849667;0.209351
0.0849833;0.140991
0.085;0.0714111
0.0850167;0.00244141
0.0850333;-0.0646973
0.08505;-0.128784
0.0850667;-0.188599
0.0850833;-0.24353
0.0851;-0.292358
0.0851167;-0.334473
0.0851333;-0.369873
0.08515;-0.397949
0.0851667;-0.418091
0.0851833;-0.429688
0.0852;-0.432739
0.0852167;-0.427856
0.0852333;-0.415649
0.08525;-0.397644
0.0852667;-0.375061
0.0852833;-0.348511
0.0853;-0.319519
0.0853167;-0.288391
0.0853333;-0.256958
0.08535;-0.225525
0.0853667;-0.195618
0.0853833;-0.166931
0.0854;-0.140686
0.0854167;-0.116577
0.0854333;-0.0952148
0.08545;-0.0765991
0.0854667;-0.0616455
0.0854833;-0.0497437
0.0855;-0.0402832
0.0855167;-0.0335693
0.0855333;-0.0292969
0.08555;-0.0268555
0.0855667;-0.0265503
0.0855833;-0.027771
0.0856;-0.0302124
0.0856167;-0.0335693
0.0856333;-0.0372314
0.08565;-0.0411987
0.0856667;-0.0445557
0.0856833;-0.0469971
0.0857;-0.0491333
0.0857167;-0.0509644
0.0857333;-0.0518799
0.08575;-0.0524902
0.0857667;-0.0531006
0.0857833;-0.0543213
0.0858;-0.0558472
0.0858167;-0.057373
0.0858333;-0.0592041
0.08585;-0.06073
0.0858667;-0.062561
0.0858833;-0.0646973
0.0859;-0.0668335
0.0859167;-0.0692749
0.0859333;-0.0714111
0.08595;-0.072937
0.0859667;-0.0744629
0.0859833;-0.0759888
0.086;-0.0772095
0.0860167;-0.078125
0.0860333;-0.0784302
0.08605;-0.0787354
0.0860667;-0.0784302
0.0860833;-0.0784302
0.0861;-0.078125
0.0861167;-0.0778198
0.0861333;-0.0769043
0.08615;-0.0759888
0.0861667;-0.0753784
0.0861833;-0.0756836
0.0862;-0.0765991
0.0862167;-0.078125
0.0862333;-0.0802612
0.08625;-0.0827026
0.0862667;-0.0845337
0.0862833;-0.0860596
0.0863;-0.0875854
0.0863167;-0.0894165
0.0863333;-0.0918579
0.08635;-0.0949097
0.0863667;-0.0985718
0.0863833;-0.101929
0.0864;-0.104675
0.0864167;-0.106812
0.0864333;-0.108337
0.08645;-0.109253
0.0864667;-0.109558
0.0864833;-0.108948
0.0865;-0.107727
0.0865167;-0.106201
0.0865333;-0.104065
0.08655;-0.102234
0.0865667;-0.100098
0.0865833;-0.0982666
0.0866;-0.0961304
0.0866167;-0.0939941
0.0866333;-0.0915527
0.08665;-0.0891113
0.0866667;-0.0869751
0.0866833;-0.0857544
0.0867;-0.0857544
0.0867167;-0.0872803
0.0867333;-0.0897217
0.08675;-0.0924683
0.0867667;-0.0949097
0.0867833;-0.0967407
0.0868;-0.0985718
0.0868167;-0.100708
0.0868333;-0.102539
0.08685;-0.10437
0.0868667;-0.106201
0.0868833;-0.108337
0.0869;-0.110779
0.0869167;-0.11322
0.0869333;-0.115967
0.08695;-0.118408
0.0869667;-0.120239
0.0869833;-0.121155
0.087;-0.12146
0.0870167;-0.12085
0.0870333;-0.120544
0.08705;-0.119934
0.0870667;-0.119324
0.0870833;-0.118713
0.0871;-0.117493
0.0871167;-0.115356
0.0871333;-0.11322
0.08715;-0.111084
0.0871667;-0.109253
0.0871833;-0.107727
0.0872;-0.107117
0.0872167;-0.107422
0.0872333;-0.108643
0.08725;-0.111084
0.0872667;-0.113831
0.0872833;-0.117188
0.0873;-0.119934
0.0873167;-0.122375
0.0873333;-0.124207
0.08735;-0.126038
0.0873667;-0.127258
0.0873833;-0.127869
0.0874;-0.128174
0.0874167;-0.127563
0.0874333;-0.126953
0.08745;-0.126343
0.0874667;-0.125732
0.0874833;-0.124817
0.0875;-0.123901
0.0875167;-0.122681
0.0875333;-0.121155
0.08755;-0.119629
0.0875667;-0.117798
0.0875833;-0.115662
0.0876;-0.112915
0.0876167;-0.110474
0.0876333;-0.108032
0.08765;-0.105896
0.0876667;-0.104675
0.0876833;-0.104675
0.0877;-0.105591
0.0877167;-0.107727
0.0877333;-0.110779
0.08775;-0.113831
0.0877667;-0.117188
0.0877833;-0.120239
0.0878;-0.123291
0.0878167;-0.125427
0.0878333;-0.127563
0.08785;-0.128784
0.0878667;-0.1297
0.0878833;-0.13031
0.0879;-0.130615
0.0879167;-0.13031
0.0879333;-0.129089
0.08795;-0.127258
0.0879667;-0.125122
0.0879833;-0.122375
0.088;-0.119629
0.0880167;-0.116882
0.0880333;-0.114746
0.08805;-0.112915
0.0880667;-0.111694
0.0880833;-0.110779
0.0881;-0.110168
0.0881167;-0.109863
0.0881333;-0.109558
0.08815;-0.109558
0.0881667;-0.110474
0.0881833;-0.111694
0.0882;-0.11322
0.0882167;-0.115356
0.0882333;-0.117188
0.08825;-0.119019
0.0882667;-0.120239
0.0882833;-0.12085
0.0883;-0.12146
0.0883167;-0.121765
0.0883333;-0.12207
0.08835;-0.122986
0.0883667;-0.124512
0.0883833;-0.126038
0.0884;-0.126953
0.0884167;-0.126953
0.0884333;-0.126343
0.08845;-0.124817
0.0884667;-0.122986
0.0884833;-0.12085
0.0885;-0.119019
0.0885167;-0.117798
0.0885333;-0.116577
0.08855;-0.115967
0.0885667;-0.115051
0.0885833;-0.114746
0.0886;-0.114441
0.0886167;-0.114441
0.0886333;-0.114746
0.08865;-0.115662
0.0886667;-0.116577
0.0886833;-0.117188
0.0887;-0.117493
0.0887167;-0.117493
0.0887333;-0.117798
0.08875;-0.118103
0.0887667;-0.119019
0.0887833;-0.120239
0.0888;-0.122681
0.0888167;-0.125732
0.0888333;-0.1297
0.08885;-0.133972
0.0888667;-0.137939
0.0888833;-0.142212
0.0889;-0.145874
0.0889167;-0.149231
0.0889333;-0.151978
0.08895;-0.154419
0.0889667;-0.156555
0.0889833;-0.158081
0.089;-0.158997
0.0890167;-0.159607
0.0890333;-0.159607
0.08905;-0.159302
0.0890667;-0.159302
0.0890833;-0.159607
0.0891;-0.160522
0.0891167;-0.161743
0.0891333;-0.162964
0.08915;-0.164795
0.0891667;-0.166931
0.0891833;-0.169983
0.0892;-0.17334
0.0892167;-0.177002
0.0892333;-0.180969
0.08925;-0.185242
0.0892667;-0.19043
0.0892833;-0.195923
0.0893;-0.201721
0.0893167;-0.207825
0.0893333;-0.214233
0.08935;-0.220947
0.0893667;-0.227051
0.0893833;-0.233459
0.0894;-0.238953
0.0894167;-0.244141
0.0894333;-0.248108
0.08945;-0.250854
0.0894667;-0.252686
0.0894833;-0.253296
0.0895;-0.253601
0.0895167;-0.253601
0.0895333;-0.253296
0.08955;-0.252991
0.0895667;-0.252075
0.0895833;-0.250854
0.0896;-0.249023
0.0896167;-0.247192
0.0896333;-0.246277
0.08965;-0.245667
0.0896667;-0.246277
0.0896833;-0.247192
0.0897;-0.248718
0.0897167;-0.250549
0.0897333;-0.25238
0.08975;-0.254822
0.0897667;-0.256958
0.0897833;-0.259705
0.0898;-0.262451
0.0898167;-0.265503
0.0898333;-0.26886
0.08985;-0.272522
0.0898667;-0.276184
0.0898833;-0.280151
0.0899;-0.284119
0.0899167;-0.287781
0.0899333;-0.290833
0.08995;-0.293274
0.0899667;-0.295105
0.0899833;-0.296326
0.09;-0.296631
0.0900167;-0.296326
0.0900333;-0.29541
0.09005;-0.293884
0.0900667;-0.292053
0.0900833;-0.290527
0.0901;-0.289307
0.0901167;-0.287781
0.0901333;-0.28656
0.09015;-0.285034
0.0901667;-0.283508
0.0901833;-0.281982
0.0902;-0.279541
0.0902167;-0.2771
0.0902333;-0.274048
0.09025;-0.270996
0.0902667;-0.26825
0.0902833;-0.266113
0.0903;-0.264587
0.0903167;-0.263672
0.0903333;-0.263977
0.09035;-0.265198
0.0903667;-0.267334
0.0903833;-0.269775
0.0904;-0.271912
0.0904167;-0.273743
0.0904333;-0.274658
0.09045;-0.274658
0.0904667;-0.274048
0.0904833;-0.272522
0.0905;-0.270386
0.0905167;-0.267334
0.0905333;-0.263977
0.09055;-0.26062
0.0905667;-0.257263
0.0905833;-0.254517
0.0906;-0.25177
0.0906167;-0.248718
0.0906333;-0.245361
0.09065;-0.241394
0.0906667;-0.236511
0.0906833;-0.231323
0.0907;-0.226135
0.0907167;-0.221558
0.0907333;-0.217896
0.09075;-0.215454
0.0907667;-0.214233
0.0907833;-0.213318
0.0908;-0.213318
0.0908167;-0.213013
0.0908333;-0.213013
0.09085;-0.213013
0.0908667;-0.213318
0.0908833;-0.213928
0.0909;-0.214844
0.0909167;-0.215454
0.0909333;-0.215759
0.09095;-0.215454
0.0909667;-0.214539
0.0909833;-0.213013
0.091;-0.210876
0.0910167;-0.20813
0.0910333;-0.205078
0.09105;-0.202637
0.0910667;-0.2005
0.0910833;-0.198669
0.0911;-0.196228
0.0911167;-0.193176
0.0911333;-0.189514
0.09115;-0.185547
0.0911667;-0.181274
0.0911833;-0.177002
0.0912;-0.17334
0.0912167;-0.170288
0.0912333;-0.168152
0.09125;-0.166321
0.0912667;-0.1651
0.0912833;-0.164185
0.0913;-0.163879
0.0913167;-0.163574
0.0913333;-0.163269
0.09135;-0.162048
0.0913667;-0.159912
0.0913833;-0.15686
0.0914;-0.152893
0.0914167;-0.148926
0.0914333;-0.144958
0.09145;-0.141602
0.0914667;-0.137939
0.0914833;-0.134277
0.0915;-0.130615
0.0915167;-0.126953
0.0915333;-0.122681
0.09155;-0.117798
0.0915667;-0.112305
0.0915833;-0.106201
0.0916;-0.0997925
0.0916167;-0.0927734
0.0916333;-0.0857544
0.09165;-0.0790405
0.0916667;-0.072937
0.0916833;-0.0671387
0.0917;-0.0622559
0.0917167;-0.0582886
0.0917333;-0.0546265
0.09175;-0.0512695
0.0917667;-0.0476074
0.0917833;-0.0445557
0.0918;-0.0418091
0.0918167;-0.039978
0.0918333;-0.0390625
0.09185;-0.0390625
0.0918667;-0.0396729
0.0918833;-0.0411987
0.0919;-0.0430298
0.0919167;-0.045166
0.0919333;-0.0466919
0.09195;-0.0473022
0.0919667;-0.0469971
0.0919833;-0.0454712
0.092;-0.0427246
0.0920167;-0.0390625
0.0920333;-0.0357056
0.09205;-0.0317383
0.0920667;-0.027771
0.0920833;-0.0228882
0.0921;-0.0180054
0.0921167;-0.0125122
0.0921333;-0.00732422
0.09215;-0.00183105
0.0921667;0.00396729
0.0921833;0.010376
0.0922;0.017395
0.0922167;0.0241089
0.0922333;0.0308228
0.09225;0.0372314
0.0922667;0.0424194
0.0922833;0.0469971
0.0923;0.0500488
0.0923167;0.0527954
0.0923333;0.0549316
0.09235;0.057373
0.0923667;0.0592041
0.0923833;0.06073
0.0924;0.0622559
0.0924167;0.0637817
0.0924333;0.0656128
0.09245;0.0683594
0.0924667;0.071106
0.0924833;0.0744629
0.0925;0.078125
0.0925167;0.0820923
0.0925333;0.0860596
0.09255;0.0906372
0.0925667;0.09552
0.0925833;0.100708
0.0926;0.106812
0.0926167;0.113525
0.0926333;0.120544
0.09265;0.127258
0.0926667;0.133057
0.0926833;0.137939
0.0927;0.141907
0.0927167;0.144958
0.0927333;0.147095
0.09275;0.149536
0.0927667;0.151672
0.0927833;0.153503
0.0928;0.155029
0.0928167;0.155945
0.0928333;0.15625
0.09285;0.15625
0.0928667;0.155945
0.0928833;0.155945
0.0929;0.15686
0.0929167;0.158386
0.0929333;0.160217
0.09295;0.162659
0.0929667;0.1651
0.0929833;0.167847
0.093;0.170593
0.0930167;0.173645
0.0930333;0.177002
0.09305;0.180359
0.0930667;0.184326
0.0930833;0.187988
0.0931;0.19165
0.0931167;0.194702
0.0931333;0.197449
0.09315;0.199585
0.0931667;0.200806
0.0931833;0.201111
0.0932;0.2005
0.0932167;0.19928
0.0932333;0.197754
0.09325;0.195923
0.0932667;0.194092
0.0932833;0.19165
0.0933;0.189514
0.0933167;0.187378
0.0933333;0.185242
0.09335;0.184021
0.0933667;0.1828
0.0933833;0.18219
0.0934;0.181885
0.0934167;0.181885
0.0934333;0.1828
0.09345;0.184631
0.0934667;0.187073
0.0934833;0.19043
0.0935;0.194092
0.0935167;0.198364
0.0935333;0.203552
0.09355;0.20874
0.0935667;0.213623
0.0935833;0.217896
0.0936;0.221252
0.0936167;0.223389
0.0936333;0.224609
0.09365;0.224609
0.0936667;0.223999
0.0936833;0.222473
0.0937;0.220337
0.0937167;0.217896
0.0937333;0.214844
0.09375;0.211182
0.0937667;0.207214
0.0937833;0.202637
0.0938;0.197144
0.0938167;0.190735
0.0938333;0.183716
0.09385;0.176086
0.0938667;0.168762
0.0938833;0.161743
0.0939;0.15625
0.0939167;0.151672
0.0939333;0.147705
0.09395;0.144043
0.0939667;0.140076
0.0939833;0.135498
0.094;0.130615
0.0940167;0.125427
0.0940333;0.120239
0.09405;0.115356
0.0940667;0.110474
0.0940833;0.106201
0.0941;0.102234
0.0941167;0.0985718
0.0941333;0.0946045
0.09415;0.0897217
0.0941667;0.0842285
0.0941833;0.078125
0.0942;0.0720215
0.0942167;0.0665283
0.0942333;0.0619507
0.09425;0.0579834
0.0942667;0.0543213
0.0942833;0.0500488
0.0943;0.0454712
0.0943167;0.0408936
0.0943333;0.0366211
0.09435;0.0335693
0.0943667;0.0317383
0.0943833;0.0311279
0.0944;0.0311279
0.0944167;0.0320435
0.0944333;0.0335693
0.09445;0.0354004
0.0944667;0.0369263
0.0944833;0.0384521
0.0945;0.0390625
0.0945167;0.038147
0.0945333;0.0360107
0.09455;0.0326538
0.0945667;0.0292969
0.0945833;0.0259399
0.0946;0.0228882
0.0946167;0.0201416
0.0946333;0.0180054
0.09465;0.0164795
0.0946667;0.0149536
0.0946833;0.0131226
0.0947;0.0106812
0.0947167;0.00762939
0.0947333;0.00427246
0.09475;0.000915527
0.0947667;-0.00244141
0.0947833;-0.00518799
0.0948;-0.00671387
0.0948167;-0.00793457
0.0948333;-0.00823975
0.09485;-0.00762939
0.0948667;-0.00671387
0.0948833;-0.00518799
0.0949;-0.00335693
0.0949167;-0.000915527
0.0949333;0.00152588
0.09495;0.00396729
0.0949667;0.00579834
0.0949833;0.00671387
0.095;0.00762939
0.0950167;0.00823975
0.0950333;0.0088501
0.09505;0.0100708
0.0950667;0.0112915
0.0950833;0.0131226
0.0951;0.0149536
0.0951167;0.0164795
0.0951333;0.0177002
0.09515;0.0183105
0.0951667;0.0180054
0.0951833;0.017395
0.0952;0.0164795
0.0952167;0.0152588
0.0952333;0.0140381
0.09525;0.0134277
0.0952667;0.0128174
0.0952833;0.012207
0.0953;0.0112915
0.0953167;0.0106812
0.0953333;0.00976562
0.09535;0.00946045
0.0953667;0.00915527
0.0953833;0.00946045
0.0954;0.00946045
0.0954167;0.00946045
0.0954333;0.00946045
0.09545;0.00946045
0.0954667;0.010376
0.0954833;0.0115967
0.0955;0.0137329
0.0955167;0.0164795
0.0955333;0.0198364
0.09555;0.0234985
0.0955667;0.0265503
0.0955833;0.0292969
0.0956;0.0314331
0.0956167;0.0335693
0.0956333;0.0363159
0.09565;0.0402832
0.0956667;0.0448608
0.0956833;0.0500488
0.0957;0.0558472
0.0957167;0.062561
0.0957333;0.0701904
0.09575;0.0796509
0.0957667;0.0909424
0.0957833;0.103455
0.0958;0.117188
0.0958167;0.132141
0.0958333;0.148315
0.09585;0.16571
0.0958667;0.184326
0.0958833;0.204773
0.0959;0.227051
0.0959167;0.25116
0.0959333;0.276794
0.09595;0.303955
0.0959667;0.332642
0.0959833;0.362854
0.096;0.394287
0.0960167;0.426636
0.0960333;0.458679
0.09605;0.489502
0.0960667;0.517883
0.0960833;0.542603
0.0961;0.562439
0.0961167;0.576477
0.0961333;0.584412
0.09615;0.586548
0.0961667;0.583801
0.0961833;0.576477
0.0962;0.564575
0.0962167;0.546875
0.0962333;0.522461
0.09625;0.490723
0.0962667;0.450745
0.0962833;0.403137
0.0963;0.348511
0.0963167;0.288086
0.0963333;0.223694
0.09635;0.15686
0.0963667;0.0891113
0.0963833;0.0219727
0.0964;-0.0430298
0.0964167;-0.10498
0.0964333;-0.163574
0.09645;-0.21759
0.0964667;-0.266113
0.0964833;-0.308533
0.0965;-0.343933
0.0965167;-0.372009
0.0965333;-0.393066
0.09655;-0.406494
0.0965667;-0.412292
0.0965833;-0.410767
0.0966;-0.402222
0.0966167;-0.386658
0.0966333;-0.365906
0.09665;-0.340271
0.0966667;-0.311584
0.0966833;-0.280457
0.0967;-0.247803
0.0967167;-0.214844
0.0967333;-0.182495
0.09675;-0.151062
0.0967667;-0.12146
0.0967833;-0.0946045
0.0968;-0.0704956
0.0968167;-0.0497437
0.0968333;-0.0323486
0.09685;-0.0183105
0.0968667;-0.00701904
0.0968833;0.0012207
0.0969;0.00732422
0.0969167;0.0109863
0.0969333;0.0131226
0.09695;0.0140381
0.0969667;0.0137329
0.0969833;0.0128174
0.097;0.0115967
0.0970167;0.010376
0.0970333;0.00915527
0.09705;0.00823975
0.0970667;0.00732422
0.0970833;0.00701904
0.0971;0.00701904
0.0971167;0.00793457
0.0971333;0.00915527
0.09715;0.0106812
0.0971667;0.0128174
0.0971833;0.015564
0.0972;0.0180054
0.0972167;0.0204468
0.0972333;0.0219727
0.09725;0.0228882
0.0972667;0.0231934
0.0972833;0.0228882
0.0973;0.0219727
0.0973167;0.0210571
0.0973333;0.0198364
0.09735;0.0180054
0.0973667;0.015564
0.0973833;0.0134277
0.0974;0.0112915
0.0974167;0.00946045
0.0974333;0.00793457
0.09745;0.00640869
0.0974667;0.00488281
0.0974833;0.00305176
0.0975;0.0012207
0.0975167;-0.000610352
0.0975333;-0.00183105
0.09755;-0.00213623
0.0975667;-0.00152588
0.0975833;0
0.0976;0.00152588
0.0976167;0.00305176
0.0976333;0.00488281
0.09765;0.00701904
0.0976667;0.00946045
0.0976833;0.0119019
0.0977;0.0140381
0.0977167;0.0158691
0.0977333;0.0177002
0.09775;0.0195312
0.0977667;0.0216675
0.0977833;0.0241089
0.0978;0.0262451
0.0978167;0.0280762
0.0978333;0.0296021
0.09785;0.0311279
0.0978667;0.032959
0.0978833;0.0354004
0.0979;0.038147
0.0979167;0.0415039
0.0979333;0.045166
0.09795;0.0485229
0.0979667;0.0512695
