0;-0.0280762
0.001;-0.0268555
0.002;-0.0250244
0.003;-0.0228882
0.004;-0.0201416
0.005;-0.017395
0.006;-0.0146484
0.007;-0.0119019
0.008;-0.00976562
0.009;-0.00762939
0.01;-0.00610352
0.011;-0.00457764
0.012;-0.00305176
0.013;-0.00152588
0.014;0
0.015;0.00152588
0.016;0.00305176
0.017;0.00427246
0.018;0.00488281
0.019;0.00518799
0.02;0.00427246
0.021;0.00274658
0.022;0.000915527
0.023;-0.000610352
0.024;-0.00152588
0.025;-0.00213623
0.026;-0.00274658
0.027;-0.00305176
0.028;-0.00366211
0.029;-0.00457764
0.03;-0.00488281
0.031;-0.00549316
0.032;-0.00549316
0.033;-0.00518799
0.034;-0.00457764
0.035;-0.00366211
0.036;-0.00244141
0.037;-0.0012207
0.038;0.000305176
0.039;0.00244141
0.04;0.00427246
0.041;0.00640869
0.042;0.00823975
0.043;0.0100708
0.044;0.0119019
0.045;0.0131226
0.046;0.0140381
0.047;0.0146484
0.048;0.0143433
0.049;0.0137329
0.05;0.0128174
0.051;0.0115967
0.052;0.010376
0.053;0.0088501
0.054;0.00732422
0.055;0.00579834
0.056;0.00427246
0.057;0.00274658
0.058;0.0012207
0.059;0.000305176
0.06;0
0.061;0
0.062;0.000915527
0.063;0.00213623
0.064;0.00396729
0.065;0.00579834
0.066;0.00762939
0.067;0.00946045
0.068;0.0115967
0.069;0.0137329
0.07;0.0161743
0.071;0.0186157
0.072;0.0210571
0.073;0.0238037
0.074;0.0265503
0.075;0.0292969
0.076;0.0314331
0.077;0.032959
0.078;0.0338745
0.079;0.0338745
0.08;0.0335693
0.081;0.0326538
0.082;0.0317383
0.083;0.0305176
0.084;0.0289917
0.085;0.0271606
0.086;0.0250244
0.087;0.022583
0.088;0.0204468
0.089;0.0183105
0.09;0.0164795
0.091;0.0152588
0.092;0.0143433
0.093;0.0143433
0.094;0.0146484
0.095;0.015564
0.096;0.0167847
0.097;0.0183105
0.098;0.0201416
0.099;0.0219727
0.1;0.0244141
0.101;0.0265503
0.102;0.0289917
0.103;0.0314331
0.104;0.0335693
0.105;0.0357056
0.106;0.0372314
0.107;0.0387573
0.108;0.039978
0.109;0.0408936
0.11;0.0411987
0.111;0.0415039
0.112;0.0418091
0.113;0.0421143
0.114;0.0427246
0.115;0.043335
0.116;0.0439453
0.117;0.0445557
0.118;0.0448608
0.119;0.0454712
0.12;0.0457764
0.121;0.0466919
0.122;0.0482178
0.123;0.0500488
0.124;0.0518799
0.125;0.0540161
0.126;0.0558472
0.127;0.0576782
0.128;0.0595093
0.129;0.0613403
0.13;0.0634766
0.131;0.0653076
0.132;0.0671387
0.133;0.0689697
0.134;0.0708008
0.135;0.0723267
0.136;0.0735474
0.137;0.0741577
0.138;0.0744629
0.139;0.0744629
0.14;0.0747681
0.141;0.0753784
0.142;0.0762939
0.143;0.0769043
0.144;0.078125
0.145;0.0790405
0.146;0.0799561
0.147;0.0808716
0.148;0.0817871
0.149;0.0827026
0.15;0.083313
0.151;0.0845337
0.152;0.0857544
0.153;0.0875854
0.154;0.0894165
0.155;0.0915527
0.156;0.0933838
0.157;0.0952148
0.158;0.0973511
0.159;0.0997925
0.16;0.102539
0.161;0.105286
0.162;0.108337
0.163;0.111084
0.164;0.113831
0.165;0.116272
0.166;0.118713
0.167;0.12085
0.168;0.122681
0.169;0.124512
0.17;0.126343
0.171;0.128174
0.172;0.1297
0.173;0.131226
0.174;0.132446
0.175;0.133362
0.176;0.134277
0.177;0.134583
0.178;0.134277
0.179;0.133667
0.18;0.132446
0.181;0.131226
0.182;0.1297
0.183;0.128784
0.184;0.128174
0.185;0.127869
0.186;0.127563
0.187;0.127563
0.188;0.127258
0.189;0.126953
0.19;0.126343
0.191;0.126038
0.192;0.125732
0.193;0.126038
0.194;0.126648
0.195;0.127563
0.196;0.128784
0.197;0.130005
0.198;0.131226
0.199;0.132446
0.2;0.133667
0.201;0.134277
0.202;0.134277
0.203;0.134277
0.204;0.133972
0.205;0.133667
0.206;0.133362
0.207;0.133057
0.208;0.132446
0.209;0.131531
0.21;0.130615
0.211;0.129395
0.212;0.127869
0.213;0.126038
0.214;0.124207
0.215;0.122375
0.216;0.120544
0.217;0.119019
0.218;0.117798
0.219;0.116882
0.22;0.115662
0.221;0.114746
0.222;0.11322
0.223;0.111389
0.224;0.109253
0.225;0.107117
0.226;0.105286
0.227;0.103149
0.228;0.101013
0.229;0.098877
0.23;0.0964355
0.231;0.0933838
0.232;0.0900269
0.233;0.0860596
0.234;0.0820923
0.235;0.0778198
0.236;0.0738525
0.237;0.0698853
0.238;0.0665283
0.239;0.0631714
0.24;0.0601196
0.241;0.0570679
0.242;0.0540161
0.243;0.0512695
0.244;0.0488281
0.245;0.0463867
0.246;0.0442505
0.247;0.0424194
0.248;0.0408936
0.249;0.0402832
0.25;0.039978
0.251;0.039978
0.252;0.0402832
0.253;0.0405884
0.254;0.0405884
0.255;0.0405884
0.256;0.039978
0.257;0.0387573
0.258;0.0372314
0.259;0.0350952
0.26;0.0326538
0.261;0.0302124
0.262;0.0274658
0.263;0.0244141
0.264;0.0213623
0.265;0.0189209
0.266;0.0164795
0.267;0.0146484
0.268;0.0131226
0.269;0.012207
0.27;0.0115967
0.271;0.0115967
0.272;0.0115967
0.273;0.0115967
0.274;0.0119019
0.275;0.012207
0.276;0.0128174
0.277;0.0134277
0.278;0.0137329
0.279;0.0137329
0.28;0.0137329
0.281;0.0140381
0.282;0.0143433
0.283;0.0146484
0.284;0.015564
0.285;0.0161743
0.286;0.0164795
0.287;0.0161743
0.288;0.015564
0.289;0.0140381
0.29;0.0119019
0.291;0.00915527
0.292;0.00640869
0.293;0.00335693
0.294;0.000305176
0.295;-0.00213623
0.296;-0.00366211
0.297;-0.00427246
0.298;-0.00335693
0.299;-0.0012207
0.3;0.0012207
0.301;0.00396729
0.302;0.00640869
0.303;0.00854492
0.304;0.0100708
0.305;0.0115967
0.306;0.0131226
0.307;0.0149536
0.308;0.0170898
0.309;0.0192261
0.31;0.0216675
0.311;0.0238037
0.312;0.0253296
0.313;0.0268555
0.314;0.0274658
0.315;0.027771
0.316;0.0274658
0.317;0.0265503
0.318;0.0253296
0.319;0.0238037
0.32;0.0222778
0.321;0.0210571
0.322;0.0198364
0.323;0.0192261
0.324;0.0186157
0.325;0.0180054
0.326;0.0180054
0.327;0.0180054
0.328;0.0183105
0.329;0.0186157
0.33;0.0189209
0.331;0.0195312
0.332;0.0204468
0.333;0.0213623
0.334;0.0222778
0.335;0.0231934
0.336;0.0241089
0.337;0.0247192
0.338;0.0253296
0.339;0.0259399
0.34;0.0259399
0.341;0.0256348
0.342;0.0250244
0.343;0.0244141
0.344;0.0234985
0.345;0.0228882
0.346;0.022583
0.347;0.0222778
0.348;0.0219727
0.349;0.0216675
0.35;0.0213623
0.351;0.020752
0.352;0.0204468
0.353;0.0204468
0.354;0.0204468
0.355;0.0204468
0.356;0.020752
0.357;0.0204468
0.358;0.0204468
0.359;0.0201416
0.36;0.0198364
0.361;0.0195312
0.362;0.0192261
0.363;0.0192261
0.364;0.0192261
0.365;0.0198364
0.366;0.020752
0.367;0.0213623
0.368;0.0219727
0.369;0.0216675
0.37;0.0210571
0.371;0.0201416
0.372;0.0195312
0.373;0.0195312
0.374;0.0198364
0.375;0.020752
0.376;0.0219727
0.377;0.0231934
0.378;0.0244141
0.379;0.0250244
0.38;0.0256348
0.381;0.0259399
0.382;0.0259399
0.383;0.0259399
0.384;0.0256348
0.385;0.0250244
0.386;0.0247192
0.387;0.0244141
0.388;0.0244141
0.389;0.0244141
0.39;0.0244141
0.391;0.0244141
0.392;0.0241089
0.393;0.0238037
0.394;0.0231934
0.395;0.0222778
0.396;0.0213623
0.397;0.0201416
0.398;0.0189209
0.399;0.017395
0.4;0.0161743
0.401;0.0149536
0.402;0.0137329
0.403;0.0128174
0.404;0.012207
0.405;0.0115967
0.406;0.0109863
0.407;0.0100708
0.408;0.00915527
0.409;0.00793457
0.41;0.00701904
0.411;0.00640869
0.412;0.00610352
0.413;0.00579834
0.414;0.00549316
0.415;0.00549316
0.416;0.00549316
0.417;0.00549316
0.418;0.00549316
0.419;0.00549316
0.42;0.00579834
0.421;0.00671387
0.422;0.00762939
0.423;0.0088501
0.424;0.00976562
0.425;0.0106812
0.426;0.0112915
0.427;0.0115967
0.428;0.012207
0.429;0.012207
0.43;0.0119019
0.431;0.0115967
0.432;0.0112915
0.433;0.0106812
0.434;0.010376
0.435;0.010376
0.436;0.010376
0.437;0.010376
0.438;0.0106812
0.439;0.0109863
0.44;0.0109863
0.441;0.010376
0.442;0.00976562
0.443;0.0088501
0.444;0.00793457
0.445;0.00701904
0.446;0.00610352
0.447;0.00488281
0.448;0.00396729
0.449;0.00274658
0.45;0.00183105
0.451;0.000915527
0.452;0.000305176
0.453;0
0.454;0
0.455;0
0.456;-0.000305176
0.457;0
0.458;0
0.459;0.000610352
0.46;0.0012207
0.461;0.00244141
0.462;0.00396729
0.463;0.00610352
0.464;0.00854492
0.465;0.0106812
0.466;0.0131226
0.467;0.0149536
0.468;0.0167847
0.469;0.0186157
0.47;0.0201416
0.471;0.0213623
0.472;0.022583
0.473;0.0234985
0.474;0.0241089
0.475;0.0247192
0.476;0.0250244
0.477;0.0250244
0.478;0.0250244
0.479;0.0244141
0.48;0.0238037
0.481;0.0222778
0.482;0.0204468
0.483;0.0183105
0.484;0.0164795
0.485;0.0152588
0.486;0.0149536
0.487;0.015564
0.488;0.0164795
0.489;0.0177002
0.49;0.0189209
0.491;0.020752
0.492;0.0222778
0.493;0.0241089
0.494;0.0262451
0.495;0.0283813
0.496;0.0305176
0.497;0.0332642
0.498;0.0360107
0.499;0.0393677
0.5;0.0427246
0.501;0.0457764
0.502;0.0482178
0.503;0.0500488
0.504;0.0512695
0.505;0.0521851
0.506;0.0527954
0.507;0.0534058
0.508;0.0537109
0.509;0.0537109
0.51;0.0540161
0.511;0.0540161
0.512;0.0543213
0.513;0.0549316
0.514;0.055542
0.515;0.0564575
0.516;0.057373
0.517;0.0579834
0.518;0.0588989
0.519;0.0598145
0.52;0.0610352
0.521;0.0628662
0.522;0.0646973
0.523;0.0665283
0.524;0.0689697
0.525;0.0717163
0.526;0.0744629
0.527;0.0778198
0.528;0.0811768
0.529;0.0845337
0.53;0.0878906
0.531;0.0909424
0.532;0.0939941
0.533;0.0967407
0.534;0.0997925
0.535;0.102234
0.536;0.104675
0.537;0.106812
0.538;0.108337
0.539;0.109558
0.54;0.110474
0.541;0.111389
0.542;0.11261
0.543;0.113831
0.544;0.115051
0.545;0.116577
0.546;0.117493
0.547;0.118103
0.548;0.118408
0.549;0.118103
0.55;0.117188
0.551;0.115967
0.552;0.114136
0.553;0.112
0.554;0.109863
0.555;0.107727
0.556;0.105286
0.557;0.102844
0.558;0.100098
0.559;0.0970459
0.56;0.093689
0.561;0.0906372
0.562;0.0869751
0.563;0.0836182
0.564;0.0796509
0.565;0.0756836
0.566;0.0714111
0.567;0.0671387
0.568;0.062561
0.569;0.0582886
0.57;0.0543213
0.571;0.0506592
0.572;0.0469971
0.573;0.0436401
0.574;0.039978
0.575;0.0366211
0.576;0.032959
0.577;0.0289917
0.578;0.0250244
0.579;0.0210571
0.58;0.0170898
0.581;0.0134277
0.582;0.00976562
0.583;0.00640869
0.584;0.00274658
0.585;-0.000305176
0.586;-0.00335693
0.587;-0.00640869
0.588;-0.0088501
0.589;-0.0115967
0.59;-0.0137329
0.591;-0.0152588
0.592;-0.0161743
0.593;-0.0158691
0.594;-0.0146484
0.595;-0.0128174
0.596;-0.0106812
0.597;-0.0088501
0.598;-0.00732422
0.599;-0.00579834
0.6;-0.00427246
0.601;-0.00244141
0.602;-0.000610352
0.603;0.000915527
0.604;0.00305176
0.605;0.00549316
0.606;0.00793457
0.607;0.010376
0.608;0.0128174
0.609;0.0143433
0.61;0.015564
0.611;0.015564
0.612;0.0149536
0.613;0.0140381
0.614;0.0131226
0.615;0.0125122
0.616;0.012207
0.617;0.012207
0.618;0.012207
0.619;0.0128174
0.62;0.0131226
0.621;0.0134277
0.622;0.0134277
0.623;0.0131226
0.624;0.0125122
0.625;0.0115967
0.626;0.0109863
0.627;0.010376
0.628;0.00976562
0.629;0.00915527
0.63;0.00854492
0.631;0.00823975
0.632;0.00762939
0.633;0.00671387
0.634;0.00579834
0.635;0.00457764
0.636;0.00335693
0.637;0.00213623
0.638;0.000610352
0.639;-0.000915527
0.64;-0.00244141
0.641;-0.00366211
0.642;-0.00488281
0.643;-0.00549316
0.644;-0.00579834
0.645;-0.00549316
0.646;-0.00457764
0.647;-0.00305176
0.648;-0.000610352
0.649;0.00244141
0.65;0.00640869
0.651;0.012207
0.652;0.0195312
0.653;0.0283813
0.654;0.0390625
0.655;0.0506592
0.656;0.0637817
0.657;0.078125
0.658;0.0939941
0.659;0.111694
0.66;0.13092
0.661;0.151672
0.662;0.174255
0.663;0.198059
0.664;0.223694
0.665;0.250854
0.666;0.27832
0.667;0.305481
0.668;0.331726
0.669;0.35553
0.67;0.376892
0.671;0.395203
0.672;0.409546
0.673;0.420227
0.674;0.427246
0.675;0.430298
0.676;0.428772
0.677;0.423279
0.678;0.413208
0.679;0.398254
0.68;0.378723
0.681;0.354309
0.682;0.325928
0.683;0.294189
0.684;0.26001
0.685;0.223694
0.686;0.185852
0.687;0.147705
0.688;0.109253
0.689;0.0714111
0.69;0.03479
0.691;-0.000305176
0.692;-0.0332642
0.693;-0.0634766
0.694;-0.0909424
0.695;-0.115356
0.696;-0.136414
0.697;-0.154724
0.698;-0.169678
0.699;-0.181274
0.7;-0.190125
0.701;-0.196228
0.702;-0.200195
0.703;-0.202637
0.704;-0.203247
0.705;-0.202332
0.706;-0.19989
0.707;-0.195923
0.708;-0.19104
0.709;-0.185547
0.71;-0.178833
0.711;-0.171509
0.712;-0.163574
0.713;-0.154724
0.714;-0.144958
0.715;-0.134888
0.716;-0.124207
0.717;-0.11322
0.718;-0.102234
0.719;-0.0909424
0.72;-0.0802612
0.721;-0.0698853
0.722;-0.0598145
0.723;-0.0506592
0.724;-0.0415039
0.725;-0.032959
0.726;-0.0250244
0.727;-0.0170898
0.728;-0.0100708
0.729;-0.00396729
0.73;0.000915527
0.731;0.00457764
0.732;0.00732422
0.733;0.0088501
0.734;0.00976562
0.735;0.0100708
0.736;0.00946045
0.737;0.00823975
0.738;0.00701904
0.739;0.00549316
0.74;0.00427246
0.741;0.00305176
0.742;0.00213623
0.743;0.00152588
0.744;0.0012207
0.745;0.0012207
0.746;0.00213623
0.747;0.00335693
0.748;0.00457764
0.749;0.00579834
0.75;0.00732422
0.751;0.00854492
0.752;0.0100708
0.753;0.0119019
0.754;0.0137329
0.755;0.0158691
0.756;0.0183105
0.757;0.0201416
0.758;0.0219727
0.759;0.022583
0.76;0.0228882
0.761;0.022583
0.762;0.0216675
0.763;0.0204468
0.764;0.0192261
0.765;0.0180054
0.766;0.0177002
0.767;0.017395
0.768;0.0170898
0.769;0.0167847
0.77;0.015564
0.771;0.0140381
0.772;0.0125122
0.773;0.0112915
0.774;0.0106812
0.775;0.0106812
0.776;0.0112915
0.777;0.0128174
0.778;0.0140381
0.779;0.0158691
0.78;0.0177002
0.781;0.0195312
0.782;0.0213623
0.783;0.0231934
0.784;0.0247192
0.785;0.0259399
0.786;0.0268555
0.787;0.0274658
0.788;0.0283813
0.789;0.0286865
0.79;0.0292969
0.791;0.0296021
0.792;0.0299072
0.793;0.0302124
0.794;0.0302124
0.795;0.0305176
0.796;0.0305176
0.797;0.0308228
0.798;0.0308228
0.799;0.0308228
0.8;0.0308228
0.801;0.0311279
0.802;0.0317383
0.803;0.0326538
0.804;0.0335693
0.805;0.0344849
0.806;0.03479
0.807;0.03479
0.808;0.0344849
0.809;0.0335693
0.81;0.0320435
0.811;0.0305176
0.812;0.0292969
0.813;0.0283813
0.814;0.027771
0.815;0.0280762
0.816;0.0286865
0.817;0.0292969
0.818;0.0302124
0.819;0.0311279
0.82;0.0317383
0.821;0.0320435
0.822;0.0320435
0.823;0.0323486
0.824;0.0323486
0.825;0.0326538
0.826;0.0332642
0.827;0.0341797
0.828;0.0350952
0.829;0.0363159
0.83;0.0378418
0.831;0.0390625
0.832;0.039978
0.833;0.0405884
0.834;0.0405884
0.835;0.0402832
0.836;0.0396729
0.837;0.0393677
0.838;0.0387573
0.839;0.038147
0.84;0.0372314
0.841;0.0360107
0.842;0.0344849
0.843;0.032959
0.844;0.0317383
0.845;0.0311279
0.846;0.0314331
0.847;0.0323486
0.848;0.0335693
0.849;0.03479
0.85;0.0363159
0.851;0.0378418
0.852;0.0393677
0.853;0.0408936
0.854;0.0418091
0.855;0.0427246
0.856;0.0436401
0.857;0.0445557
0.858;0.0454712
0.859;0.0463867
0.86;0.0476074
0.861;0.0488281
0.862;0.0500488
0.863;0.0512695
0.864;0.0527954
0.865;0.0540161
0.866;0.0549316
0.867;0.055542
0.868;0.0561523
0.869;0.0564575
0.87;0.0567627
0.871;0.057373
0.872;0.0579834
0.873;0.0585938
0.874;0.0595093
0.875;0.0601196
0.876;0.0604248
0.877;0.06073
0.878;0.0610352
0.879;0.0613403
0.88;0.0616455
0.881;0.062561
0.882;0.0637817
0.883;0.0653076
0.884;0.0668335
0.885;0.0686646
0.886;0.0704956
0.887;0.0723267
0.888;0.0738525
0.889;0.0753784
0.89;0.0769043
0.891;0.0784302
0.892;0.0799561
0.893;0.0817871
0.894;0.0836182
0.895;0.0860596
0.896;0.088501
0.897;0.0912476
0.898;0.0939941
0.899;0.0961304
0.9;0.0982666
0.901;0.100098
0.902;0.101624
0.903;0.103149
0.904;0.10437
0.905;0.105591
0.906;0.106506
0.907;0.106812
0.908;0.106506
0.909;0.106201
0.91;0.105591
0.911;0.10498
0.912;0.104675
0.913;0.104675
0.914;0.10498
0.915;0.105591
0.916;0.106506
0.917;0.107422
0.918;0.108948
0.919;0.110779
0.92;0.112305
0.921;0.114136
0.922;0.115356
0.923;0.116577
0.924;0.117798
0.925;0.118713
0.926;0.119629
0.927;0.12085
0.928;0.12207
0.929;0.123596
0.93;0.124817
0.931;0.126038
0.932;0.126953
0.933;0.127869
0.934;0.128174
0.935;0.128479
0.936;0.128174
0.937;0.127869
0.938;0.127258
0.939;0.126343
0.94;0.125427
0.941;0.124817
0.942;0.124207
0.943;0.123901
0.944;0.123901
0.945;0.124512
0.946;0.125427
0.947;0.126343
0.948;0.126648
0.949;0.126648
0.95;0.126343
0.951;0.125427
0.952;0.124817
0.953;0.123901
0.954;0.123291
0.955;0.122681
0.956;0.12207
0.957;0.12146
0.958;0.121155
0.959;0.12146
0.96;0.121765
0.961;0.12207
0.962;0.122375
0.963;0.12207
0.964;0.121155
0.965;0.119934
0.966;0.118408
0.967;0.116882
0.968;0.115356
0.969;0.113831
0.97;0.112305
0.971;0.110779
0.972;0.108643
0.973;0.105896
0.974;0.103149
0.975;0.0997925
0.976;0.0964355
0.977;0.0930786
0.978;0.0894165
0.979;0.0857544
0.98;0.0817871
0.981;0.0778198
0.982;0.0735474
0.983;0.0695801
0.984;0.0653076
0.985;0.0616455
0.986;0.0582886
0.987;0.0552368
0.988;0.0527954
0.989;0.0506592
0.99;0.0488281
0.991;0.0473022
0.992;0.0454712
0.993;0.0439453
0.994;0.0424194
0.995;0.0408936
0.996;0.0396729
0.997;0.038147
0.998;0.0369263
0.999;0.0357056
1;0.03479
1.001;0.0332642
1.002;0.0320435
1.003;0.0302124
1.004;0.0280762
1.005;0.0262451
1.006;0.0244141
1.007;0.0228882
1.008;0.0216675
1.009;0.020752
1.01;0.0198364
1.011;0.0192261
1.012;0.0186157
1.013;0.0183105
1.014;0.0183105
1.015;0.0186157
1.016;0.0195312
1.017;0.020752
1.018;0.0219727
1.019;0.0228882
1.02;0.0241089
1.021;0.0253296
1.022;0.0265503
1.023;0.0274658
1.024;0.0286865
1.025;0.0299072
1.026;0.0305176
1.027;0.0308228
1.028;0.0305176
1.029;0.0305176
1.03;0.0299072
1.031;0.0296021
1.032;0.0286865
1.033;0.027771
1.034;0.0262451
1.035;0.0247192
1.036;0.0231934
1.037;0.0213623
1.038;0.0198364
1.039;0.0180054
1.04;0.0164795
1.041;0.0146484
1.042;0.0134277
1.043;0.012207
1.044;0.0112915
1.045;0.010376
1.046;0.0100708
1.047;0.0100708
1.048;0.0100708
1.049;0.0106812
1.05;0.0109863
1.051;0.0115967
1.052;0.012207
1.053;0.0128174
1.054;0.0137329
1.055;0.0152588
1.056;0.0167847
1.057;0.0189209
1.058;0.0204468
1.059;0.0216675
1.06;0.022583
1.061;0.0231934
1.062;0.0234985
1.063;0.0234985
1.064;0.0231934
1.065;0.0228882
1.066;0.0222778
1.067;0.0210571
1.068;0.0195312
1.069;0.0177002
1.07;0.0158691
1.071;0.0146484
1.072;0.0134277
1.073;0.0128174
1.074;0.0125122
1.075;0.012207
1.076;0.0119019
1.077;0.0115967
1.078;0.0109863
1.079;0.0100708
1.08;0.00946045
1.081;0.00854492
1.082;0.00793457
1.083;0.00762939
1.084;0.00762939
1.085;0.00793457
1.086;0.00854492
1.087;0.00946045
1.088;0.010376
1.089;0.0112915
1.09;0.0119019
1.091;0.0128174
1.092;0.0134277
1.093;0.0143433
1.094;0.0152588
1.095;0.0164795
1.096;0.0177002
1.097;0.0192261
1.098;0.020752
1.099;0.0222778
1.1;0.0238037
1.101;0.0253296
1.102;0.0268555
1.103;0.0283813
1.104;0.0296021
1.105;0.0308228
1.106;0.0317383
1.107;0.0317383
1.108;0.0311279
1.109;0.0296021
1.11;0.0271606
1.111;0.0244141
1.112;0.0216675
1.113;0.0189209
1.114;0.0161743
1.115;0.0134277
1.116;0.0109863
1.117;0.00823975
1.118;0.00579834
1.119;0.00335693
1.12;0.0012207
1.121;-0.000915527
1.122;-0.00305176
1.123;-0.00427246
1.124;-0.00518799
1.125;-0.00549316
1.126;-0.00549316
1.127;-0.00457764
1.128;-0.00366211
1.129;-0.00213623
1.13;0
1.131;0.00244141
1.132;0.00549316
1.133;0.00823975
1.134;0.0112915
1.135;0.0137329
1.136;0.0158691
1.137;0.017395
1.138;0.0186157
1.139;0.0195312
1.14;0.0201416
1.141;0.0204468
1.142;0.0201416
1.143;0.0198364
1.144;0.0186157
1.145;0.017395
1.146;0.0161743
1.147;0.0149536
1.148;0.0137329
1.149;0.0128174
1.15;0.0119019
1.151;0.0109863
1.152;0.00976562
1.153;0.0088501
1.154;0.00732422
1.155;0.00549316
1.156;0.00335693
1.157;0.00152588
1.158;-0.000610352
1.159;-0.00213623
1.16;-0.00305176
1.161;-0.00366211
1.162;-0.00427246
1.163;-0.00427246
1.164;-0.00427246
1.165;-0.00427246
1.166;-0.00396729
1.167;-0.00396729
1.168;-0.00335693
1.169;-0.00305176
1.17;-0.00274658
1.171;-0.00244141
1.172;-0.00244141
1.173;-0.00244141
1.174;-0.00305176
1.175;-0.00366211
1.176;-0.00457764
1.177;-0.00549316
1.178;-0.00640869
1.179;-0.00732422
1.18;-0.00854492
1.181;-0.00946045
1.182;-0.0100708
1.183;-0.010376
1.184;-0.010376
1.185;-0.0100708
1.186;-0.00976562
1.187;-0.00946045
1.188;-0.0088501
1.189;-0.00823975
1.19;-0.00732422
1.191;-0.00610352
1.192;-0.00518799
1.193;-0.00427246
1.194;-0.00305176
1.195;-0.00213623
1.196;-0.000915527
1.197;0.000305176
1.198;0.00152588
1.199;0.00244141
1.2;0.00274658
1.201;0.00305176
1.202;0.00335693
1.203;0.00335693
1.204;0.00305176
1.205;0.00244141
1.206;0.0012207
1.207;0
1.208;-0.00183105
1.209;-0.00366211
1.21;-0.00518799
1.211;-0.00671387
1.212;-0.00823975
1.213;-0.00976562
1.214;-0.0112915
1.215;-0.0131226
1.216;-0.0149536
1.217;-0.0164795
1.218;-0.0180054
1.219;-0.0186157
1.22;-0.0186157
1.221;-0.0177002
1.222;-0.0158691
1.223;-0.0137329
1.224;-0.0112915
1.225;-0.0088501
1.226;-0.00701904
1.227;-0.00579834
1.228;-0.00518799
1.229;-0.00457764
1.23;-0.00396729
1.231;-0.00335693
1.232;-0.00244141
1.233;-0.00152588
1.234;-0.000610352
1.235;0.000305176
1.236;0.000915527
1.237;0.000915527
1.238;0.000915527
1.239;0.000610352
1.24;-0.000305176
1.241;-0.0012207
1.242;-0.00274658
1.243;-0.00488281
1.244;-0.00701904
1.245;-0.00946045
1.246;-0.0109863
1.247;-0.0115967
1.248;-0.0119019
1.249;-0.0112915
1.25;-0.0106812
1.251;-0.00976562
1.252;-0.00915527
1.253;-0.00823975
1.254;-0.00732422
1.255;-0.00671387
1.256;-0.00549316
1.257;-0.00427246
1.258;-0.00244141
1.259;-0.000305176
1.26;0.00183105
1.261;0.00427246
1.262;0.00610352
1.263;0.00793457
1.264;0.00946045
1.265;0.010376
1.266;0.0112915
1.267;0.0119019
1.268;0.012207
1.269;0.0125122
1.27;0.0128174
1.271;0.0134277
1.272;0.0140381
1.273;0.0149536
1.274;0.0164795
1.275;0.0183105
1.276;0.020752
1.277;0.0228882
1.278;0.0253296
1.279;0.0271606
1.28;0.0289917
1.281;0.0308228
1.282;0.0323486
1.283;0.0338745
1.284;0.0357056
1.285;0.0372314
1.286;0.0387573
1.287;0.0402832
1.288;0.0411987
1.289;0.0421143
1.29;0.0427246
1.291;0.0427246
1.292;0.0421143
1.293;0.0418091
1.294;0.0411987
1.295;0.0405884
1.296;0.0402832
1.297;0.0402832
1.298;0.0405884
1.299;0.0415039
1.3;0.0430298
1.301;0.045166
1.302;0.0476074
1.303;0.0500488
1.304;0.0524902
1.305;0.0552368
1.306;0.0579834
1.307;0.0613403
1.308;0.0653076
1.309;0.0692749
1.31;0.072937
1.311;0.0765991
1.312;0.0796509
1.313;0.0820923
1.314;0.0842285
1.315;0.0857544
1.316;0.0869751
1.317;0.0875854
1.318;0.0872803
1.319;0.0863647
1.32;0.0845337
1.321;0.0820923
1.322;0.0793457
1.323;0.0762939
1.324;0.0735474
1.325;0.0708008
1.326;0.067749
1.327;0.0650024
1.328;0.0616455
1.329;0.0582886
1.33;0.0546265
1.331;0.0512695
1.332;0.0482178
1.333;0.0454712
1.334;0.043335
1.335;0.0411987
1.336;0.0396729
1.337;0.0378418
1.338;0.0360107
1.339;0.0344849
1.34;0.0326538
1.341;0.0308228
1.342;0.0286865
1.343;0.0265503
1.344;0.0241089
1.345;0.0213623
1.346;0.0183105
1.347;0.0146484
1.348;0.010376
1.349;0.00579834
1.35;0.000915527
1.351;-0.00427246
1.352;-0.0088501
1.353;-0.0134277
1.354;-0.017395
1.355;-0.0213623
1.356;-0.0250244
1.357;-0.0286865
1.358;-0.0323486
1.359;-0.0357056
1.36;-0.0390625
1.361;-0.0421143
1.362;-0.0445557
1.363;-0.0466919
1.364;-0.0482178
1.365;-0.0491333
1.366;-0.0494385
1.367;-0.0488281
1.368;-0.0476074
1.369;-0.0460815
1.37;-0.0442505
1.371;-0.0424194
1.372;-0.0408936
1.373;-0.0396729
1.374;-0.0387573
1.375;-0.038147
1.376;-0.0378418
1.377;-0.0372314
1.378;-0.0363159
1.379;-0.0354004
1.38;-0.0350952
1.381;-0.0350952
1.382;-0.0354004
1.383;-0.0363159
1.384;-0.0375366
1.385;-0.0384521
1.386;-0.0393677
1.387;-0.0396729
1.388;-0.039978
1.389;-0.039978
1.39;-0.039978
1.391;-0.039978
1.392;-0.0402832
1.393;-0.0402832
1.394;-0.039978
1.395;-0.039978
1.396;-0.0393677
1.397;-0.0387573
1.398;-0.0378418
1.399;-0.0369263
1.4;-0.0354004
1.401;-0.0338745
1.402;-0.0326538
1.403;-0.0311279
1.404;-0.0302124
1.405;-0.0296021
1.406;-0.0296021
1.407;-0.0299072
1.408;-0.0302124
1.409;-0.0311279
1.41;-0.0323486
1.411;-0.0338745
1.412;-0.0360107
1.413;-0.0384521
1.414;-0.0408936
1.415;-0.043335
1.416;-0.0454712
1.417;-0.0466919
1.418;-0.0476074
1.419;-0.0479126
1.42;-0.0469971
1.421;-0.0448608
1.422;-0.0411987
1.423;-0.0357056
1.424;-0.0283813
1.425;-0.0192261
1.426;-0.00823975
1.427;0.00457764
1.428;0.0195312
1.429;0.0366211
1.43;0.0561523
1.431;0.0784302
1.432;0.103455
1.433;0.131226
1.434;0.161133
1.435;0.192261
1.436;0.224609
1.437;0.257568
1.438;0.290833
1.439;0.324097
1.44;0.35614
1.441;0.386658
1.442;0.414734
1.443;0.439148
1.444;0.460205
1.445;0.477295
1.446;0.490112
1.447;0.498352
1.448;0.501709
1.449;0.499573
1.45;0.491638
1.451;0.478516
1.452;0.460205
1.453;0.436707
1.454;0.40863
1.455;0.376892
1.456;0.341492
1.457;0.30365
1.458;0.263977
1.459;0.222473
1.46;0.180054
1.461;0.137329
1.462;0.0949097
1.463;0.0537109
1.464;0.0143433
1.465;-0.0231934
1.466;-0.0582886
1.467;-0.0897217
1.468;-0.117493
1.469;-0.141296
1.47;-0.160828
1.471;-0.177002
1.472;-0.189514
1.473;-0.198975
1.474;-0.205688
1.475;-0.210266
1.476;-0.212097
1.477;-0.211792
1.478;-0.209045
1.479;-0.204773
1.48;-0.198975
1.481;-0.192261
1.482;-0.184326
1.483;-0.175781
1.484;-0.166321
1.485;-0.15686
1.486;-0.14679
1.487;-0.136719
1.488;-0.126648
1.489;-0.116882
1.49;-0.107727
1.491;-0.0985718
1.492;-0.0897217
1.493;-0.0814819
1.494;-0.0735474
1.495;-0.0662231
1.496;-0.0598145
1.497;-0.0543213
1.498;-0.0497437
1.499;-0.0457764
1.5;-0.0427246
1.501;-0.0402832
1.502;-0.0384521
1.503;-0.0372314
1.504;-0.0363159
1.505;-0.0360107
1.506;-0.0354004
1.507;-0.0350952
1.508;-0.03479
1.509;-0.03479
1.51;-0.03479
1.511;-0.03479
1.512;-0.03479
1.513;-0.03479
1.514;-0.0350952
1.515;-0.0354004
1.516;-0.0354004
1.517;-0.0350952
1.518;-0.0341797
1.519;-0.0335693
1.52;-0.0323486
1.521;-0.0314331
1.522;-0.0305176
1.523;-0.0296021
1.524;-0.0286865
1.525;-0.0274658
1.526;-0.0265503
1.527;-0.0250244
1.528;-0.0238037
1.529;-0.022583
1.53;-0.0213623
1.531;-0.0201416
1.532;-0.0195312
1.533;-0.0195312
1.534;-0.0201416
1.535;-0.020752
1.536;-0.0216675
1.537;-0.022583
1.538;-0.0228882
1.539;-0.0231934
1.54;-0.0228882
1.541;-0.022583
1.542;-0.0219727
1.543;-0.0213623
1.544;-0.0210571
1.545;-0.020752
1.546;-0.020752
1.547;-0.0210571
1.548;-0.0210571
1.549;-0.020752
1.55;-0.0204468
1.551;-0.0198364
1.552;-0.0189209
1.553;-0.017395
1.554;-0.0158691
1.555;-0.0140381
1.556;-0.0125122
1.557;-0.0109863
1.558;-0.00976562
1.559;-0.0088501
1.56;-0.00823975
1.561;-0.00732422
1.562;-0.00671387
1.563;-0.00610352
1.564;-0.00549316
1.565;-0.00488281
1.566;-0.00396729
1.567;-0.00335693
1.568;-0.00274658
1.569;-0.00183105
1.57;-0.000305176
1.571;0.000915527
1.572;0.00244141
1.573;0.00366211
1.574;0.00457764
1.575;0.00549316
1.576;0.00610352
1.577;0.00701904
1.578;0.00793457
1.579;0.0088501
1.58;0.0100708
1.581;0.0106812
1.582;0.0112915
1.583;0.0115967
1.584;0.0115967
1.585;0.0106812
1.586;0.00946045
1.587;0.00732422
1.588;0.00488281
1.589;0.00244141
1.59;0
1.591;-0.00183105
1.592;-0.00366211
1.593;-0.00488281
1.594;-0.00549316
1.595;-0.00579834
1.596;-0.00579834
1.597;-0.00549316
1.598;-0.00518799
1.599;-0.00488281
1.6;-0.00457764
1.601;-0.00396729
1.602;-0.00305176
1.603;-0.00152588
1.604;0.000305176
1.605;0.00244141
1.606;0.00457764
1.607;0.00671387
1.608;0.00854492
1.609;0.00976562
1.61;0.0106812
1.611;0.0115967
1.612;0.012207
1.613;0.0125122
1.614;0.0131226
1.615;0.0134277
1.616;0.0137329
1.617;0.0137329
1.618;0.0140381
1.619;0.0143433
1.62;0.0149536
1.621;0.0158691
1.622;0.0170898
1.623;0.0183105
1.624;0.0195312
1.625;0.0210571
1.626;0.022583
1.627;0.0244141
1.628;0.0265503
1.629;0.0283813
1.63;0.0308228
1.631;0.032959
1.632;0.0354004
1.633;0.0375366
1.634;0.0390625
1.635;0.039978
1.636;0.0402832
1.637;0.0402832
1.638;0.039978
1.639;0.0390625
1.64;0.038147
1.641;0.0372314
1.642;0.0369263
1.643;0.0372314
1.644;0.038147
1.645;0.0390625
1.646;0.039978
1.647;0.0411987
1.648;0.0418091
1.649;0.0418091
1.65;0.0418091
1.651;0.0411987
1.652;0.0408936
1.653;0.0408936
1.654;0.0415039
1.655;0.0430298
1.656;0.045166
1.657;0.0473022
1.658;0.0494385
1.659;0.0515747
1.66;0.0534058
1.661;0.0558472
1.662;0.0579834
1.663;0.0601196
1.664;0.062561
1.665;0.0650024
1.666;0.0674438
1.667;0.0701904
1.668;0.0732422
1.669;0.0762939
1.67;0.0793457
1.671;0.0823975
1.672;0.085144
1.673;0.0881958
1.674;0.0906372
1.675;0.0930786
1.676;0.0952148
1.677;0.0973511
1.678;0.098877
1.679;0.100403
1.68;0.101929
1.681;0.102844
1.682;0.103455
1.683;0.10376
1.684;0.10376
1.685;0.10376
1.686;0.104065
1.687;0.10437
1.688;0.10498
1.689;0.105896
1.69;0.106812
1.691;0.108032
1.692;0.109253
1.693;0.110168
1.694;0.110779
1.695;0.111389
1.696;0.112
1.697;0.11322
1.698;0.114746
1.699;0.116882
1.7;0.119019
1.701;0.12146
1.702;0.123901
1.703;0.126343
1.704;0.128479
1.705;0.130615
1.706;0.132446
1.707;0.134277
1.708;0.136108
1.709;0.137939
1.71;0.140076
1.711;0.142517
1.712;0.144958
1.713;0.1474
1.714;0.149536
1.715;0.151367
1.716;0.152588
1.717;0.152893
1.718;0.152893
1.719;0.152283
1.72;0.151062
1.721;0.149231
1.722;0.147095
1.723;0.145264
1.724;0.143738
1.725;0.142517
1.726;0.140991
1.727;0.139465
1.728;0.137634
1.729;0.135193
1.73;0.132141
1.731;0.129089
1.732;0.126038
1.733;0.122986
1.734;0.120239
1.735;0.117798
1.736;0.115662
1.737;0.114136
1.738;0.11261
1.739;0.111389
1.74;0.110168
1.741;0.108643
1.742;0.106506
1.743;0.10437
1.744;0.101318
1.745;0.0979614
1.746;0.0939941
1.747;0.0897217
1.748;0.085144
1.749;0.0805664
1.75;0.0756836
1.751;0.071106
1.752;0.0665283
1.753;0.0616455
1.754;0.0567627
1.755;0.0515747
1.756;0.0463867
1.757;0.0415039
1.758;0.0363159
1.759;0.0314331
1.76;0.0268555
1.761;0.0228882
1.762;0.0195312
1.763;0.0167847
1.764;0.0143433
1.765;0.0119019
1.766;0.00946045
1.767;0.00671387
1.768;0.00427246
1.769;0.00152588
1.77;-0.000915527
1.771;-0.00335693
1.772;-0.00518799
1.773;-0.00701904
1.774;-0.0088501
1.775;-0.0100708
1.776;-0.0112915
1.777;-0.0125122
1.778;-0.0134277
1.779;-0.0140381
1.78;-0.0146484
1.781;-0.0149536
1.782;-0.015564
1.783;-0.0158691
1.784;-0.0161743
1.785;-0.0164795
1.786;-0.0164795
1.787;-0.0161743
1.788;-0.0152588
1.789;-0.0140381
1.79;-0.0128174
1.791;-0.0112915
1.792;-0.00976562
1.793;-0.0088501
1.794;-0.00823975
1.795;-0.00823975
1.796;-0.0088501
1.797;-0.00946045
1.798;-0.0100708
1.799;-0.0106812
1.8;-0.0112915
1.801;-0.0119019
1.802;-0.0125122
1.803;-0.0131226
1.804;-0.0140381
1.805;-0.0146484
1.806;-0.015564
1.807;-0.0164795
1.808;-0.0177002
1.809;-0.0189209
1.81;-0.0204468
1.811;-0.0216675
1.812;-0.0222778
1.813;-0.022583
1.814;-0.0222778
1.815;-0.0219727
1.816;-0.0216675
1.817;-0.0213623
1.818;-0.0213623
1.819;-0.0210571
1.82;-0.0204468
1.821;-0.0195312
1.822;-0.0183105
1.823;-0.0170898
1.824;-0.0161743
1.825;-0.0152588
1.826;-0.0149536
1.827;-0.0146484
1.828;-0.0146484
1.829;-0.0146484
1.83;-0.0143433
1.831;-0.0140381
1.832;-0.0137329
1.833;-0.0137329
1.834;-0.0140381
1.835;-0.0143433
1.836;-0.0146484
1.837;-0.0152588
1.838;-0.0158691
1.839;-0.0161743
1.84;-0.0161743
1.841;-0.0161743
1.842;-0.015564
1.843;-0.0149536
1.844;-0.0143433
1.845;-0.0137329
1.846;-0.0131226
1.847;-0.0125122
1.848;-0.0119019
1.849;-0.0106812
1.85;-0.00976562
1.851;-0.00823975
1.852;-0.00701904
1.853;-0.00579834
1.854;-0.00457764
1.855;-0.00366211
1.856;-0.00305176
1.857;-0.00335693
1.858;-0.00366211
1.859;-0.00427246
1.86;-0.00488281
1.861;-0.00518799
1.862;-0.00549316
1.863;-0.00579834
1.864;-0.00610352
1.865;-0.00671387
1.866;-0.00762939
1.867;-0.00854492
1.868;-0.00976562
1.869;-0.0109863
1.87;-0.0119019
1.871;-0.0125122
1.872;-0.0128174
1.873;-0.0125122
1.874;-0.0119019
1.875;-0.0109863
1.876;-0.0100708
1.877;-0.00976562
1.878;-0.00976562
1.879;-0.0100708
1.88;-0.0109863
1.881;-0.0125122
1.882;-0.0140381
1.883;-0.0158691
1.884;-0.0177002
1.885;-0.0192261
1.886;-0.0204468
1.887;-0.0213623
1.888;-0.0216675
1.889;-0.0216675
1.89;-0.020752
1.891;-0.0195312
1.892;-0.0177002
1.893;-0.0158691
1.894;-0.0140381
1.895;-0.0119019
1.896;-0.0100708
1.897;-0.00793457
1.898;-0.00549316
1.899;-0.00274658
1.9;-0.000305176
1.901;0.00183105
1.902;0.00366211
1.903;0.00518799
1.904;0.00671387
1.905;0.00762939
1.906;0.00854492
1.907;0.0088501
1.908;0.0088501
1.909;0.00854492
1.91;0.00762939
1.911;0.00610352
1.912;0.00366211
1.913;0.000915527
1.914;-0.00213623
1.915;-0.00488281
1.916;-0.00762939
1.917;-0.010376
1.918;-0.012207
1.919;-0.0140381
1.92;-0.0149536
1.921;-0.015564
1.922;-0.0158691
1.923;-0.0158691
1.924;-0.0158691
1.925;-0.015564
1.926;-0.0152588
1.927;-0.0149536
1.928;-0.0146484
1.929;-0.0137329
1.93;-0.0128174
1.931;-0.0119019
1.932;-0.0109863
1.933;-0.0106812
1.934;-0.0106812
1.935;-0.0112915
1.936;-0.012207
1.937;-0.0134277
1.938;-0.0143433
1.939;-0.0152588
1.94;-0.0158691
1.941;-0.0167847
1.942;-0.0180054
1.943;-0.0192261
1.944;-0.0204468
1.945;-0.0216675
1.946;-0.0231934
1.947;-0.0244141
1.948;-0.0256348
1.949;-0.0265503
1.95;-0.0271606
1.951;-0.0274658
1.952;-0.027771
1.953;-0.027771
1.954;-0.027771
1.955;-0.027771
1.956;-0.0274658
1.957;-0.0274658
1.958;-0.0274658
1.959;-0.027771
1.96;-0.0280762
1.961;-0.0283813
1.962;-0.0286865
1.963;-0.0289917
1.964;-0.0289917
1.965;-0.0286865
1.966;-0.0280762
1.967;-0.0274658
1.968;-0.0274658
1.969;-0.0274658
1.97;-0.027771
1.971;-0.027771
1.972;-0.0274658
1.973;-0.0271606
1.974;-0.0268555
1.975;-0.0268555
1.976;-0.0268555
1.977;-0.0268555
1.978;-0.0271606
1.979;-0.0274658
1.98;-0.0274658
1.981;-0.0268555
1.982;-0.0262451
1.983;-0.0253296
1.984;-0.0247192
1.985;-0.0244141
1.986;-0.0244141
1.987;-0.0250244
1.988;-0.0259399
1.989;-0.0268555
1.99;-0.0283813
1.991;-0.0296021
1.992;-0.0308228
1.993;-0.0317383
1.994;-0.0320435
1.995;-0.0323486
1.996;-0.0323486
1.997;-0.0320435
1.998;-0.0314331
1.999;-0.0302124
2;-0.0289917
2.001;-0.027771
2.002;-0.0265503
2.003;-0.0253296
2.004;-0.0244141
2.005;-0.0238037
2.006;-0.0231934
2.007;-0.0228882
2.008;-0.0228882
2.009;-0.0228882
2.01;-0.0228882
2.011;-0.0222778
2.012;-0.0216675
2.013;-0.020752
2.014;-0.0198364
2.015;-0.0189209
2.016;-0.0186157
2.017;-0.0186157
2.018;-0.0192261
2.019;-0.0198364
2.02;-0.0201416
2.021;-0.0204468
2.022;-0.0204468
2.023;-0.0204468
2.024;-0.0204468
2.025;-0.020752
2.026;-0.0210571
2.027;-0.0213623
2.028;-0.0216675
2.029;-0.0219727
2.03;-0.0222778
2.031;-0.0222778
2.032;-0.0222778
2.033;-0.0219727
2.034;-0.0213623
2.035;-0.020752
2.036;-0.0201416
2.037;-0.0192261
2.038;-0.0183105
2.039;-0.017395
2.04;-0.0161743
2.041;-0.0146484
2.042;-0.0131226
2.043;-0.0115967
2.044;-0.00946045
2.045;-0.00762939
2.046;-0.00549316
2.047;-0.00366211
2.048;-0.00152588
2.049;0.000305176
2.05;0.00213623
2.051;0.00366211
2.052;0.00488281
2.053;0.00640869
2.054;0.00823975
2.055;0.00946045
2.056;0.0109863
2.057;0.0119019
2.058;0.0128174
2.059;0.0134277
2.06;0.0143433
2.061;0.0149536
2.062;0.0158691
2.063;0.017395
2.064;0.0186157
2.065;0.0204468
2.066;0.0219727
2.067;0.0238037
2.068;0.0256348
2.069;0.0280762
2.07;0.0305176
2.071;0.0332642
2.072;0.0363159
2.073;0.0396729
2.074;0.043335
2.075;0.0473022
2.076;0.0512695
2.077;0.0552368
2.078;0.0592041
2.079;0.0628662
2.08;0.0662231
2.081;0.0695801
2.082;0.0726318
2.083;0.0756836
2.084;0.0787354
2.085;0.0814819
2.086;0.0836182
2.087;0.0854492
2.088;0.0866699
2.089;0.0875854
2.09;0.0878906
2.091;0.0875854
2.092;0.0866699
2.093;0.0854492
2.094;0.0836182
2.095;0.0808716
2.096;0.0775146
2.097;0.0732422
2.098;0.0683594
2.099;0.0631714
2.1;0.057373
2.101;0.0521851
2.102;0.0469971
2.103;0.0421143
2.104;0.0375366
2.105;0.0332642
2.106;0.0289917
2.107;0.0250244
2.108;0.020752
2.109;0.0170898
2.11;0.0134277
2.111;0.00976562
2.112;0.00671387
2.113;0.00396729
2.114;0.0012207
2.115;-0.0012207
2.116;-0.00366211
2.117;-0.00579834
2.118;-0.00823975
2.119;-0.010376
2.12;-0.0125122
2.121;-0.0149536
2.122;-0.017395
2.123;-0.0201416
2.124;-0.0234985
2.125;-0.0271606
2.126;-0.0311279
2.127;-0.0354004
2.128;-0.0396729
2.129;-0.043335
2.13;-0.0466919
2.131;-0.0500488
2.132;-0.0534058
2.133;-0.0570679
2.134;-0.06073
2.135;-0.0646973
2.136;-0.0689697
2.137;-0.0732422
2.138;-0.0769043
2.139;-0.0799561
2.14;-0.0817871
2.141;-0.0823975
2.142;-0.0823975
2.143;-0.0820923
2.144;-0.0817871
2.145;-0.0811768
2.146;-0.0808716
2.147;-0.0802612
2.148;-0.0799561
2.149;-0.0796509
2.15;-0.0790405
2.151;-0.078125
2.152;-0.0772095
2.153;-0.0756836
2.154;-0.0735474
2.155;-0.0714111
2.156;-0.0689697
2.157;-0.0671387
2.158;-0.065918
2.159;-0.0653076
2.16;-0.0656128
2.161;-0.0662231
2.162;-0.0674438
2.163;-0.0689697
2.164;-0.0708008
2.165;-0.0723267
2.166;-0.0735474
2.167;-0.0747681
2.168;-0.0753784
2.169;-0.0756836
2.17;-0.0756836
2.171;-0.0756836
2.172;-0.0759888
2.173;-0.0765991
2.174;-0.0772095
2.175;-0.0778198
2.176;-0.0787354
2.177;-0.0790405
2.178;-0.0793457
2.179;-0.0793457
2.18;-0.0790405
2.181;-0.0790405
2.182;-0.0790405
2.183;-0.0793457
2.184;-0.0796509
2.185;-0.0802612
2.186;-0.0811768
2.187;-0.0817871
2.188;-0.0823975
2.189;-0.0827026
2.19;-0.0830078
2.191;-0.0830078
2.192;-0.0827026
2.193;-0.0820923
2.194;-0.0802612
2.195;-0.0775146
2.196;-0.0732422
2.197;-0.0671387
2.198;-0.0595093
2.199;-0.0497437
2.2;-0.0384521
2.201;-0.0259399
2.202;-0.0115967
2.203;0.00427246
2.204;0.0219727
2.205;0.0421143
2.206;0.0643921
2.207;0.0891113
2.208;0.115356
2.209;0.143433
2.21;0.172729
2.211;0.203552
2.212;0.23468
2.213;0.265808
2.214;0.296326
2.215;0.325012
2.216;0.352173
2.217;0.376892
2.218;0.398865
2.219;0.41748
2.22;0.432129
2.221;0.442505
2.222;0.447693
2.223;0.447388
2.224;0.4422
2.225;0.431824
2.226;0.416565
2.227;0.397034
2.228;0.373535
2.229;0.346069
2.23;0.315247
2.231;0.281372
2.232;0.245056
2.233;0.207214
2.234;0.167847
2.235;0.128174
2.236;0.0891113
2.237;0.0509644
2.238;0.0140381
2.239;-0.0213623
2.24;-0.0543213
2.241;-0.085144
2.242;-0.11322
2.243;-0.138245
2.244;-0.159912
2.245;-0.178528
2.246;-0.194092
2.247;-0.206604
2.248;-0.21637
2.249;-0.223389
2.25;-0.227966
2.251;-0.230713
2.252;-0.231323
2.253;-0.230103
2.254;-0.227661
2.255;-0.223999
2.256;-0.219116
2.257;-0.213623
2.258;-0.20752
2.259;-0.200806
2.26;-0.193787
2.261;-0.185852
2.262;-0.177612
2.263;-0.168762
2.264;-0.159607
2.265;-0.149841
2.266;-0.140381
2.267;-0.131531
2.268;-0.123596
2.269;-0.116882
2.27;-0.111084
2.271;-0.106506
2.272;-0.102539
2.273;-0.0994873
2.274;-0.0967407
2.275;-0.0942993
2.276;-0.0924683
2.277;-0.0909424
2.278;-0.0897217
2.279;-0.0891113
2.28;-0.0888062
2.281;-0.0891113
2.282;-0.0891113
2.283;-0.0891113
2.284;-0.0891113
2.285;-0.0888062
2.286;-0.088501
2.287;-0.0878906
2.288;-0.0869751
2.289;-0.0860596
2.29;-0.0845337
2.291;-0.0830078
2.292;-0.0811768
2.293;-0.0793457
2.294;-0.0775146
2.295;-0.0756836
2.296;-0.0741577
2.297;-0.0726318
2.298;-0.0714111
2.299;-0.0704956
2.3;-0.0695801
2.301;-0.0689697
2.302;-0.0683594
2.303;-0.0674438
2.304;-0.0668335
2.305;-0.065918
2.306;-0.0653076
2.307;-0.0646973
2.308;-0.0646973
2.309;-0.0646973
2.31;-0.0650024
2.311;-0.0653076
2.312;-0.0656128
2.313;-0.0653076
2.314;-0.0650024
2.315;-0.0646973
2.316;-0.0640869
2.317;-0.0631714
2.318;-0.0622559
2.319;-0.0616455
2.32;-0.0610352
2.321;-0.0604248
2.322;-0.0604248
2.323;-0.0604248
2.324;-0.06073
2.325;-0.0604248
2.326;-0.0601196
2.327;-0.0592041
2.328;-0.0582886
2.329;-0.0576782
2.33;-0.057373
2.331;-0.057373
2.332;-0.057373
2.333;-0.057373
2.334;-0.057373
2.335;-0.0576782
2.336;-0.0576782
2.337;-0.0579834
2.338;-0.0585938
2.339;-0.0595093
2.34;-0.0601196
2.341;-0.0604248
2.342;-0.0604248
2.343;-0.0601196
2.344;-0.0598145
2.345;-0.0595093
2.346;-0.0595093
2.347;-0.0601196
2.348;-0.06073
2.349;-0.0610352
2.35;-0.0613403
2.351;-0.06073
2.352;-0.0598145
2.353;-0.0582886
2.354;-0.0564575
2.355;-0.0546265
2.356;-0.0531006
2.357;-0.0518799
2.358;-0.0509644
2.359;-0.050354
2.36;-0.0497437
2.361;-0.0491333
2.362;-0.0485229
2.363;-0.0482178
2.364;-0.0476074
2.365;-0.0469971
2.366;-0.0466919
2.367;-0.0466919
2.368;-0.0473022
2.369;-0.0482178
2.37;-0.0491333
2.371;-0.050354
2.372;-0.0512695
2.373;-0.0521851
2.374;-0.0527954
2.375;-0.0531006
2.376;-0.0531006
2.377;-0.0531006
2.378;-0.0524902
2.379;-0.0515747
2.38;-0.0506592
2.381;-0.0491333
2.382;-0.0473022
2.383;-0.045166
2.384;-0.0427246
2.385;-0.039978
2.386;-0.0375366
2.387;-0.03479
2.388;-0.0323486
2.389;-0.0299072
2.39;-0.0274658
2.391;-0.0250244
2.392;-0.0234985
2.393;-0.0219727
2.394;-0.0213623
2.395;-0.020752
2.396;-0.0201416
2.397;-0.0198364
2.398;-0.0195312
2.399;-0.0195312
2.4;-0.0198364
2.401;-0.0204468
2.402;-0.0210571
2.403;-0.0216675
2.404;-0.0219727
2.405;-0.0219727
2.406;-0.0216675
2.407;-0.0210571
2.408;-0.020752
2.409;-0.0201416
2.41;-0.0201416
2.411;-0.0201416
2.412;-0.0204468
2.413;-0.0204468
2.414;-0.0204468
2.415;-0.0198364
2.416;-0.0192261
2.417;-0.0180054
2.418;-0.0170898
2.419;-0.0158691
2.42;-0.0146484
2.421;-0.0134277
2.422;-0.012207
2.423;-0.0109863
2.424;-0.00976562
2.425;-0.00823975
2.426;-0.00701904
2.427;-0.00549316
2.428;-0.00366211
2.429;-0.00183105
2.43;0
2.431;0.00213623
2.432;0.00457764
2.433;0.00671387
2.434;0.0088501
2.435;0.0106812
2.436;0.0128174
2.437;0.0143433
2.438;0.015564
2.439;0.0167847
2.44;0.0180054
2.441;0.0192261
2.442;0.020752
2.443;0.022583
2.444;0.0244141
2.445;0.0259399
2.446;0.0271606
2.447;0.0283813
2.448;0.0292969
2.449;0.0302124
2.45;0.0308228
2.451;0.0317383
2.452;0.0332642
2.453;0.03479
2.454;0.0369263
2.455;0.0393677
2.456;0.0421143
2.457;0.045166
2.458;0.0482178
2.459;0.0509644
2.46;0.0534058
2.461;0.055542
2.462;0.0576782
2.463;0.0598145
2.464;0.0616455
2.465;0.0634766
2.466;0.0653076
2.467;0.0674438
2.468;0.0692749
2.469;0.0714111
2.47;0.0732422
2.471;0.0750732
2.472;0.0765991
2.473;0.078125
2.474;0.0793457
2.475;0.0802612
2.476;0.0805664
2.477;0.0799561
2.478;0.0790405
2.479;0.0778198
2.48;0.0765991
2.481;0.0756836
2.482;0.0753784
2.483;0.0753784
2.484;0.0756836
2.485;0.0759888
2.486;0.0762939
2.487;0.0769043
2.488;0.0772095
2.489;0.078125
2.49;0.0793457
2.491;0.0808716
2.492;0.0830078
2.493;0.085144
2.494;0.0872803
2.495;0.0897217
2.496;0.0921631
2.497;0.0942993
2.498;0.0964355
2.499;0.0982666
2.5;0.0997925
2.501;0.100708
2.502;0.101013
2.503;0.101013
2.504;0.0997925
2.505;0.0982666
2.506;0.0961304
2.507;0.0933838
2.508;0.090332
2.509;0.0866699
2.51;0.0823975
2.511;0.0775146
2.512;0.0723267
2.513;0.0668335
2.514;0.0610352
2.515;0.055542
2.516;0.0497437
2.517;0.0442505
2.518;0.0387573
2.519;0.032959
2.52;0.0274658
2.521;0.0219727
2.522;0.0170898
2.523;0.0125122
2.524;0.00823975
2.525;0.00396729
2.526;0.000305176
2.527;-0.00305176
2.528;-0.00579834
2.529;-0.00823975
2.53;-0.0100708
2.531;-0.0115967
2.532;-0.0131226
2.533;-0.0149536
2.534;-0.0167847
2.535;-0.0192261
2.536;-0.0222778
2.537;-0.0256348
2.538;-0.0292969
2.539;-0.032959
2.54;-0.0360107
2.541;-0.0387573
2.542;-0.0411987
2.543;-0.043335
2.544;-0.0454712
2.545;-0.0482178
2.546;-0.0509644
2.547;-0.0546265
2.548;-0.0585938
2.549;-0.0631714
2.55;-0.0674438
2.551;-0.071106
2.552;-0.0744629
2.553;-0.0772095
2.554;-0.0793457
2.555;-0.0811768
2.556;-0.0823975
2.557;-0.0830078
2.558;-0.083313
2.559;-0.0830078
2.56;-0.0827026
2.561;-0.0820923
2.562;-0.0814819
2.563;-0.0805664
2.564;-0.0799561
2.565;-0.0790405
2.566;-0.078125
2.567;-0.0772095
2.568;-0.0762939
2.569;-0.0753784
2.57;-0.0741577
2.571;-0.072937
2.572;-0.0720215
2.573;-0.0708008
2.574;-0.0698853
2.575;-0.0692749
2.576;-0.0689697
2.577;-0.0686646
2.578;-0.0686646
2.579;-0.0683594
2.58;-0.0683594
2.581;-0.0683594
2.582;-0.0686646
2.583;-0.0686646
2.584;-0.0689697
2.585;-0.0692749
2.586;-0.0695801
2.587;-0.0698853
2.588;-0.0698853
2.589;-0.0695801
2.59;-0.0695801
2.591;-0.0695801
2.592;-0.0695801
2.593;-0.0695801
2.594;-0.0698853
2.595;-0.0704956
2.596;-0.0708008
2.597;-0.0717163
2.598;-0.0723267
2.599;-0.0726318
2.6;-0.072937
2.601;-0.0726318
2.602;-0.0723267
2.603;-0.0714111
2.604;-0.0701904
2.605;-0.0689697
2.606;-0.0680542
2.607;-0.0671387
2.608;-0.0665283
2.609;-0.0662231
2.61;-0.0662231
2.611;-0.065918
2.612;-0.0656128
2.613;-0.0650024
2.614;-0.0640869
2.615;-0.0631714
2.616;-0.062561
2.617;-0.0622559
2.618;-0.0619507
2.619;-0.0622559
2.62;-0.0628662
2.621;-0.0631714
2.622;-0.0637817
2.623;-0.0643921
2.624;-0.0646973
2.625;-0.0650024
2.626;-0.0650024
2.627;-0.0653076
2.628;-0.065918
2.629;-0.0668335
2.63;-0.067749
2.631;-0.0689697
2.632;-0.0701904
2.633;-0.0717163
2.634;-0.072937
2.635;-0.0741577
2.636;-0.0750732
2.637;-0.0753784
2.638;-0.0753784
2.639;-0.0747681
2.64;-0.0738525
2.641;-0.072937
2.642;-0.0723267
2.643;-0.0717163
2.644;-0.0717163
2.645;-0.0717163
2.646;-0.0720215
2.647;-0.0720215
2.648;-0.0714111
2.649;-0.0698853
2.65;-0.067749
2.651;-0.0656128
2.652;-0.0631714
2.653;-0.0610352
2.654;-0.0588989
2.655;-0.0567627
2.656;-0.0549316
2.657;-0.0527954
2.658;-0.0512695
2.659;-0.0500488
2.66;-0.0494385
2.661;-0.0491333
2.662;-0.0497437
2.663;-0.050354
2.664;-0.0509644
2.665;-0.0521851
2.666;-0.0534058
2.667;-0.0552368
2.668;-0.0576782
2.669;-0.0604248
2.67;-0.062561
2.671;-0.0643921
2.672;-0.0656128
2.673;-0.0665283
2.674;-0.0671387
2.675;-0.0674438
2.676;-0.067749
2.677;-0.0674438
2.678;-0.0671387
2.679;-0.0665283
2.68;-0.0656128
2.681;-0.0643921
2.682;-0.0628662
2.683;-0.0613403
2.684;-0.0595093
2.685;-0.0576782
2.686;-0.0561523
2.687;-0.0546265
2.688;-0.0537109
2.689;-0.0537109
2.69;-0.0546265
2.691;-0.055542
2.692;-0.0567627
2.693;-0.057373
2.694;-0.0582886
2.695;-0.0585938
2.696;-0.0588989
2.697;-0.0592041
2.698;-0.0592041
2.699;-0.0592041
2.7;-0.0588989
2.701;-0.0582886
2.702;-0.057373
2.703;-0.0561523
2.704;-0.0546265
2.705;-0.0524902
2.706;-0.050354
2.707;-0.0482178
2.708;-0.0463867
2.709;-0.0448608
2.71;-0.0442505
2.711;-0.0442505
2.712;-0.0448608
2.713;-0.0460815
2.714;-0.0473022
2.715;-0.0488281
2.716;-0.0509644
2.717;-0.0531006
2.718;-0.0558472
2.719;-0.0585938
2.72;-0.0613403
2.721;-0.0637817
2.722;-0.0662231
2.723;-0.0683594
2.724;-0.0704956
2.725;-0.0720215
2.726;-0.0732422
2.727;-0.0738525
2.728;-0.0738525
2.729;-0.0732422
2.73;-0.0723267
2.731;-0.071106
2.732;-0.0695801
2.733;-0.0683594
2.734;-0.0671387
2.735;-0.0662231
2.736;-0.0653076
2.737;-0.0646973
2.738;-0.0640869
2.739;-0.0634766
2.74;-0.0628662
2.741;-0.0622559
2.742;-0.0619507
2.743;-0.0616455
2.744;-0.0613403
2.745;-0.0610352
2.746;-0.0604248
2.747;-0.0598145
2.748;-0.0595093
2.749;-0.0588989
2.75;-0.0585938
2.751;-0.0585938
2.752;-0.0585938
2.753;-0.0588989
2.754;-0.0595093
2.755;-0.0598145
2.756;-0.0604248
2.757;-0.06073
2.758;-0.06073
2.759;-0.06073
2.76;-0.06073
2.761;-0.0610352
2.762;-0.0613403
2.763;-0.0619507
2.764;-0.0631714
2.765;-0.0643921
2.766;-0.065918
2.767;-0.0671387
2.768;-0.0680542
2.769;-0.0686646
2.77;-0.0686646
2.771;-0.0680542
2.772;-0.0671387
2.773;-0.0653076
2.774;-0.0631714
2.775;-0.0610352
2.776;-0.0592041
2.777;-0.0576782
2.778;-0.0564575
2.779;-0.055542
2.78;-0.0546265
2.781;-0.0537109
2.782;-0.0531006
2.783;-0.0521851
2.784;-0.0515747
2.785;-0.0509644
2.786;-0.050354
2.787;-0.0497437
2.788;-0.0494385
2.789;-0.0494385
2.79;-0.0497437
2.791;-0.050354
2.792;-0.0512695
2.793;-0.0518799
2.794;-0.0524902
2.795;-0.0524902
2.796;-0.0524902
2.797;-0.0518799
2.798;-0.0515747
2.799;-0.0512695
2.8;-0.0512695
2.801;-0.0515747
2.802;-0.0515747
2.803;-0.0518799
2.804;-0.0515747
2.805;-0.0512695
2.806;-0.0509644
2.807;-0.050354
2.808;-0.0500488
2.809;-0.0494385
2.81;-0.0491333
2.811;-0.0491333
2.812;-0.0494385
2.813;-0.050354
2.814;-0.0512695
2.815;-0.0521851
2.816;-0.0527954
2.817;-0.0534058
2.818;-0.0543213
2.819;-0.0549316
2.82;-0.055542
2.821;-0.0564575
2.822;-0.0570679
2.823;-0.0576782
2.824;-0.0579834
2.825;-0.0585938
2.826;-0.0588989
2.827;-0.0592041
2.828;-0.0595093
2.829;-0.0595093
2.83;-0.0598145
2.831;-0.0598145
2.832;-0.0598145
2.833;-0.0592041
2.834;-0.0588989
2.835;-0.0579834
2.836;-0.0570679
2.837;-0.0558472
2.838;-0.0549316
2.839;-0.0540161
2.84;-0.0527954
2.841;-0.0518799
2.842;-0.0506592
2.843;-0.0491333
2.844;-0.0473022
2.845;-0.0454712
2.846;-0.0427246
2.847;-0.039978
2.848;-0.0372314
2.849;-0.0344849
2.85;-0.0317383
2.851;-0.0292969
2.852;-0.0268555
2.853;-0.0244141
2.854;-0.0216675
2.855;-0.0186157
2.856;-0.0158691
2.857;-0.0131226
2.858;-0.0109863
2.859;-0.0088501
2.86;-0.00732422
2.861;-0.00579834
2.862;-0.00488281
2.863;-0.00396729
2.864;-0.00366211
2.865;-0.00366211
2.866;-0.00366211
2.867;-0.00396729
2.868;-0.00457764
2.869;-0.00518799
2.87;-0.00579834
2.871;-0.00671387
2.872;-0.00732422
2.873;-0.00762939
2.874;-0.00793457
2.875;-0.00732422
2.876;-0.00610352
2.877;-0.00427246
2.878;-0.00152588
2.879;0.00152588
2.88;0.00488281
2.881;0.00854492
2.882;0.012207
2.883;0.0161743
2.884;0.0198364
2.885;0.0234985
2.886;0.0271606
2.887;0.0308228
2.888;0.0338745
2.889;0.0369263
2.89;0.0393677
2.891;0.0418091
2.892;0.0442505
2.893;0.0466919
2.894;0.0491333
2.895;0.0509644
2.896;0.0521851
2.897;0.0524902
2.898;0.0524902
2.899;0.0515747
2.9;0.050354
2.901;0.0482178
2.902;0.0454712
2.903;0.0418091
2.904;0.0378418
2.905;0.0335693
2.906;0.0286865
2.907;0.0241089
2.908;0.0201416
2.909;0.0164795
2.91;0.0137329
2.911;0.0109863
2.912;0.00854492
2.913;0.00579834
2.914;0.00274658
2.915;-0.000610352
2.916;-0.00366211
2.917;-0.00640869
2.918;-0.00854492
2.919;-0.010376
2.92;-0.0115967
2.921;-0.0128174
2.922;-0.0140381
2.923;-0.0152588
2.924;-0.0161743
2.925;-0.0167847
2.926;-0.017395
2.927;-0.0183105
2.928;-0.0192261
2.929;-0.0204468
2.93;-0.022583
2.931;-0.0250244
2.932;-0.0280762
2.933;-0.0314331
2.934;-0.0350952
2.935;-0.0387573
2.936;-0.0424194
2.937;-0.0463867
2.938;-0.050354
2.939;-0.0546265
2.94;-0.0585938
2.941;-0.062561
2.942;-0.0662231
2.943;-0.0698853
2.944;-0.0732422
2.945;-0.0756836
2.946;-0.0775146
2.947;-0.0787354
2.948;-0.0790405
2.949;-0.0790405
2.95;-0.0790405
2.951;-0.0790405
2.952;-0.0790405
2.953;-0.0790405
2.954;-0.0787354
2.955;-0.078125
2.956;-0.0772095
2.957;-0.0759888
2.958;-0.0744629
2.959;-0.072937
2.96;-0.0717163
2.961;-0.0704956
2.962;-0.0692749
2.963;-0.0680542
2.964;-0.0668335
2.965;-0.065918
2.966;-0.0650024
2.967;-0.0646973
2.968;-0.0643921
2.969;-0.0640869
2.97;-0.0640869
2.971;-0.0640869
2.972;-0.0643921
2.973;-0.0643921
2.974;-0.0643921
2.975;-0.0643921
2.976;-0.0650024
2.977;-0.0653076
2.978;-0.065918
2.979;-0.0665283
2.98;-0.0671387
2.981;-0.0680542
2.982;-0.0689697
2.983;-0.0698853
2.984;-0.0708008
2.985;-0.0720215
2.986;-0.072937
2.987;-0.0738525
2.988;-0.0744629
2.989;-0.0753784
2.99;-0.0762939
2.991;-0.0769043
2.992;-0.0775146
2.993;-0.0772095
2.994;-0.0769043
2.995;-0.0756836
2.996;-0.0741577
2.997;-0.0717163
2.998;-0.0683594
2.999;-0.0637817
3;-0.057373
3.001;-0.0494385
3.002;-0.0396729
3.003;-0.0283813
3.004;-0.015564
3.005;-0.000915527
3.006;0.0149536
3.007;0.0326538
3.008;0.0518799
3.009;0.072937
3.01;0.09552
3.011;0.119629
3.012;0.145569
3.013;0.173035
3.014;0.201416
3.015;0.230103
3.016;0.258484
3.017;0.28595
3.018;0.311279
3.019;0.334167
3.02;0.354004
3.021;0.370483
3.022;0.383606
3.023;0.393066
3.024;0.398254
3.025;0.39917
3.026;0.395508
3.027;0.386963
3.028;0.37323
3.029;0.354309
3.03;0.330811
3.031;0.30304
3.032;0.271301
3.033;0.237122
3.034;0.200806
3.035;0.163269
3.036;0.124817
3.037;0.0860596
3.038;0.0476074
3.039;0.0100708
3.04;-0.0262451
3.041;-0.06073
3.042;-0.0930786
3.043;-0.122681
3.044;-0.149231
3.045;-0.172729
3.046;-0.193176
3.047;-0.210571
3.048;-0.224915
3.049;-0.235901
3.05;-0.244141
3.051;-0.249329
3.052;-0.251465
3.053;-0.251465
3.054;-0.248718
3.055;-0.244446
3.056;-0.238647
3.057;-0.231934
3.058;-0.224915
3.059;-0.21759
3.06;-0.210266
3.061;-0.202637
3.062;-0.194702
3.063;-0.186157
3.064;-0.177002
3.065;-0.167236
3.066;-0.157166
3.067;-0.146484
3.068;-0.135803
3.069;-0.125732
3.07;-0.116272
3.071;-0.107422
3.072;-0.0997925
3.073;-0.0930786
3.074;-0.0869751
3.075;-0.0817871
3.076;-0.0772095
3.077;-0.072937
3.078;-0.0695801
3.079;-0.0662231
3.08;-0.0631714
3.081;-0.0601196
3.082;-0.0570679
3.083;-0.0543213
3.084;-0.0521851
3.085;-0.050354
3.086;-0.0491333
3.087;-0.0482178
3.088;-0.0479126
3.089;-0.0479126
3.09;-0.0479126
3.091;-0.0476074
3.092;-0.0473022
3.093;-0.0463867
3.094;-0.0454712
3.095;-0.0442505
3.096;-0.043335
3.097;-0.0427246
3.098;-0.0424194
3.099;-0.0424194
3.1;-0.0427246
3.101;-0.0430298
3.102;-0.043335
3.103;-0.0430298
3.104;-0.0427246
3.105;-0.0421143
3.106;-0.0411987
3.107;-0.039978
3.108;-0.0387573
3.109;-0.0372314
3.11;-0.0357056
3.111;-0.0344849
3.112;-0.032959
3.113;-0.0317383
3.114;-0.0305176
3.115;-0.0292969
3.116;-0.027771
3.117;-0.0262451
3.118;-0.0247192
3.119;-0.0231934
3.12;-0.0213623
3.121;-0.0195312
3.122;-0.0177002
3.123;-0.0161743
3.124;-0.0146484
3.125;-0.0137329
3.126;-0.0134277
3.127;-0.0131226
3.128;-0.0131226
3.129;-0.0131226
3.13;-0.0137329
3.131;-0.0140381
3.132;-0.0146484
3.133;-0.0149536
3.134;-0.0152588
3.135;-0.0158691
3.136;-0.0167847
3.137;-0.0180054
3.138;-0.0198364
3.139;-0.0219727
3.14;-0.0241089
3.141;-0.0259399
3.142;-0.027771
3.143;-0.0289917
3.144;-0.0299072
3.145;-0.0305176
3.146;-0.0305176
3.147;-0.0302124
3.148;-0.0296021
3.149;-0.0289917
3.15;-0.0280762
3.151;-0.0268555
3.152;-0.0256348
3.153;-0.0244141
3.154;-0.022583
3.155;-0.020752
3.156;-0.0189209
3.157;-0.0167847
3.158;-0.0146484
3.159;-0.0128174
3.16;-0.0109863
3.161;-0.00946045
3.162;-0.00823975
3.163;-0.00732422
3.164;-0.00671387
3.165;-0.00579834
3.166;-0.00518799
3.167;-0.00427246
3.168;-0.00335693
3.169;-0.00244141
3.17;-0.00213623
3.171;-0.00183105
3.172;-0.00213623
3.173;-0.00274658
3.174;-0.00366211
3.175;-0.00488281
3.176;-0.00610352
3.177;-0.00701904
3.178;-0.00793457
3.179;-0.00854492
3.18;-0.0088501
3.181;-0.0088501
3.182;-0.0088501
3.183;-0.0088501
3.184;-0.0088501
3.185;-0.0088501
3.186;-0.00915527
3.187;-0.00946045
3.188;-0.0100708
3.189;-0.0100708
3.19;-0.00976562
3.191;-0.00915527
3.192;-0.00793457
3.193;-0.00610352
3.194;-0.00427246
3.195;-0.00213623
3.196;0.000305176
3.197;0.00305176
3.198;0.00549316
3.199;0.00823975
3.2;0.0106812
3.201;0.0131226
3.202;0.0149536
3.203;0.0164795
3.204;0.0180054
3.205;0.0189209
3.206;0.0198364
3.207;0.020752
3.208;0.0213623
3.209;0.0222778
3.21;0.0228882
3.211;0.0238037
3.212;0.0244141
3.213;0.0250244
3.214;0.0250244
3.215;0.0250244
3.216;0.0247192
3.217;0.0250244
3.218;0.0256348
3.219;0.0265503
3.22;0.027771
3.221;0.0292969
3.222;0.0305176
3.223;0.0320435
3.224;0.0332642
3.225;0.0344849
3.226;0.0363159
3.227;0.038147
3.228;0.039978
3.229;0.0421143
3.23;0.0445557
3.231;0.0469971
3.232;0.0497437
3.233;0.0518799
3.234;0.0543213
3.235;0.0561523
3.236;0.0582886
3.237;0.0598145
3.238;0.0613403
3.239;0.0628662
3.24;0.0643921
3.241;0.065918
3.242;0.0674438
3.243;0.0689697
3.244;0.0704956
3.245;0.0720215
3.246;0.0735474
3.247;0.0747681
3.248;0.0762939
3.249;0.0772095
3.25;0.078125
3.251;0.0784302
3.252;0.0787354
3.253;0.0787354
3.254;0.0790405
3.255;0.0799561
3.256;0.0808716
3.257;0.0823975
3.258;0.0839233
3.259;0.0860596
3.26;0.0878906
3.261;0.0897217
3.262;0.0912476
3.263;0.0924683
3.264;0.093689
3.265;0.0949097
3.266;0.0967407
3.267;0.098877
3.268;0.101318
3.269;0.104065
3.27;0.106812
3.271;0.109558
3.272;0.111694
3.273;0.113831
3.274;0.115356
3.275;0.116882
3.276;0.118103
3.277;0.119629
3.278;0.12085
3.279;0.122681
3.28;0.124207
3.281;0.125427
3.282;0.126648
3.283;0.127563
3.284;0.128174
3.285;0.129089
3.286;0.1297
3.287;0.130615
3.288;0.131836
3.289;0.133057
3.29;0.133972
3.291;0.134583
3.292;0.134888
3.293;0.134583
3.294;0.134277
3.295;0.134277
3.296;0.133972
3.297;0.133667
3.298;0.133362
3.299;0.133057
3.3;0.132751
3.301;0.132751
3.302;0.132446
3.303;0.132141
3.304;0.131531
3.305;0.130615
3.306;0.1297
3.307;0.128479
3.308;0.127563
3.309;0.126343
3.31;0.125427
3.311;0.124512
3.312;0.123596
3.313;0.122681
3.314;0.12146
3.315;0.120239
3.316;0.118713
3.317;0.117188
3.318;0.115662
3.319;0.113525
3.32;0.111084
3.321;0.108032
3.322;0.104065
3.323;0.0994873
3.324;0.0949097
3.325;0.0900269
3.326;0.0854492
3.327;0.0811768
3.328;0.0775146
3.329;0.0741577
3.33;0.0714111
3.331;0.0683594
3.332;0.0653076
3.333;0.0619507
3.334;0.0582886
3.335;0.0549316
3.336;0.0512695
3.337;0.0479126
3.338;0.0445557
3.339;0.0418091
3.34;0.0393677
3.341;0.0375366
3.342;0.0363159
3.343;0.0354004
3.344;0.0350952
3.345;0.0344849
3.346;0.0338745
3.347;0.032959
3.348;0.0314331
3.349;0.0296021
3.35;0.0274658
3.351;0.0250244
3.352;0.022583
3.353;0.0201416
3.354;0.0177002
3.355;0.0152588
3.356;0.0131226
3.357;0.0106812
3.358;0.0088501
3.359;0.00701904
3.36;0.00549316
3.361;0.00427246
3.362;0.00305176
3.363;0.00244141
3.364;0.00213623
3.365;0.00213623
3.366;0.00213623
3.367;0.00213623
3.368;0.00244141
3.369;0.00244141
3.37;0.00274658
3.371;0.00335693
3.372;0.00427246
3.373;0.00579834
3.374;0.00762939
3.375;0.00946045
3.376;0.0112915
3.377;0.0128174
3.378;0.0140381
3.379;0.0146484
3.38;0.0152588
3.381;0.015564
3.382;0.015564
3.383;0.0158691
3.384;0.0158691
3.385;0.0158691
3.386;0.0158691
3.387;0.015564
3.388;0.015564
3.389;0.0152588
3.39;0.0149536
3.391;0.0146484
3.392;0.0143433
3.393;0.0137329
3.394;0.0134277
3.395;0.0134277
3.396;0.0137329
3.397;0.0143433
3.398;0.0149536
3.399;0.0158691
3.4;0.0167847
3.401;0.0177002
3.402;0.0186157
3.403;0.0195312
3.404;0.0201416
3.405;0.020752
3.406;0.0213623
3.407;0.0216675
3.408;0.022583
3.409;0.0231934
3.41;0.0241089
3.411;0.0250244
3.412;0.0259399
3.413;0.0265503
3.414;0.0271606
3.415;0.0271606
3.416;0.0271606
3.417;0.0268555
3.418;0.0268555
3.419;0.0268555
3.42;0.0274658
3.421;0.0280762
3.422;0.0289917
3.423;0.0299072
3.424;0.0308228
3.425;0.0314331
3.426;0.0317383
3.427;0.0320435
3.428;0.0323486
3.429;0.0326538
3.43;0.0335693
3.431;0.03479
3.432;0.0363159
3.433;0.0375366
3.434;0.0387573
3.435;0.0390625
3.436;0.0393677
3.437;0.0390625
3.438;0.0387573
3.439;0.0384521
3.44;0.0378418
3.441;0.0375366
3.442;0.0369263
3.443;0.0363159
3.444;0.0357056
3.445;0.03479
3.446;0.0338745
3.447;0.0332642
3.448;0.0323486
3.449;0.0317383
3.45;0.0308228
3.451;0.0302124
3.452;0.0296021
3.453;0.0296021
3.454;0.0296021
3.455;0.0302124
3.456;0.0305176
3.457;0.0314331
3.458;0.0323486
3.459;0.0335693
3.46;0.0354004
3.461;0.0372314
3.462;0.0390625
3.463;0.0405884
3.464;0.0418091
3.465;0.0430298
3.466;0.0439453
3.467;0.0448608
3.468;0.0454712
3.469;0.0460815
3.47;0.0463867
3.471;0.0466919
3.472;0.0466919
3.473;0.0463867
3.474;0.0463867
3.475;0.0460815
3.476;0.0454712
3.477;0.0448608
3.478;0.0439453
3.479;0.0427246
3.48;0.0418091
3.481;0.0408936
3.482;0.0396729
3.483;0.0384521
3.484;0.0372314
3.485;0.0360107
3.486;0.0350952
3.487;0.0344849
3.488;0.0344849
3.489;0.03479
3.49;0.0354004
3.491;0.0363159
3.492;0.0369263
3.493;0.0378418
3.494;0.0387573
3.495;0.0396729
3.496;0.0402832
3.497;0.0411987
3.498;0.0421143
3.499;0.0430298
3.5;0.0439453
3.501;0.0448608
3.502;0.0457764
3.503;0.0463867
3.504;0.0466919
3.505;0.0469971
3.506;0.0473022
3.507;0.0469971
3.508;0.0466919
3.509;0.0457764
3.51;0.0445557
3.511;0.0427246
3.512;0.0405884
3.513;0.0387573
3.514;0.0369263
3.515;0.0354004
3.516;0.0341797
3.517;0.032959
3.518;0.0320435
3.519;0.0314331
3.52;0.0311279
3.521;0.0308228
3.522;0.0305176
3.523;0.0302124
3.524;0.0296021
3.525;0.0296021
3.526;0.0299072
3.527;0.0311279
3.528;0.032959
3.529;0.0354004
3.53;0.0378418
3.531;0.0402832
3.532;0.0424194
3.533;0.0442505
3.534;0.0460815
3.535;0.0479126
3.536;0.0497437
3.537;0.0512695
3.538;0.0524902
3.539;0.0531006
3.54;0.0537109
3.541;0.0537109
3.542;0.0534058
3.543;0.0527954
3.544;0.0518799
3.545;0.0509644
3.546;0.0500488
3.547;0.0491333
3.548;0.0482178
3.549;0.0473022
3.55;0.0469971
3.551;0.0466919
3.552;0.0463867
3.553;0.0463867
3.554;0.0463867
3.555;0.0463867
3.556;0.0463867
3.557;0.0463867
3.558;0.0469971
3.559;0.0476074
3.56;0.0485229
3.561;0.0494385
3.562;0.050354
3.563;0.0515747
3.564;0.0524902
3.565;0.0534058
3.566;0.0540161
3.567;0.0540161
3.568;0.0537109
3.569;0.0524902
3.57;0.050354
3.571;0.0479126
3.572;0.0454712
3.573;0.043335
3.574;0.0415039
3.575;0.0402832
3.576;0.0393677
3.577;0.0390625
3.578;0.0384521
3.579;0.0384521
3.58;0.0387573
3.581;0.0396729
3.582;0.0408936
3.583;0.0427246
3.584;0.0445557
3.585;0.0463867
3.586;0.0482178
3.587;0.0500488
3.588;0.0521851
3.589;0.0543213
3.59;0.0567627
3.591;0.0592041
3.592;0.0616455
3.593;0.0640869
3.594;0.0665283
3.595;0.0686646
3.596;0.0704956
3.597;0.0723267
3.598;0.0738525
3.599;0.0753784
3.6;0.0759888
3.601;0.0762939
3.602;0.0762939
3.603;0.0759888
3.604;0.0759888
3.605;0.0759888
3.606;0.0765991
3.607;0.0775146
3.608;0.0790405
3.609;0.0805664
3.61;0.0823975
3.611;0.0842285
3.612;0.0860596
3.613;0.0878906
3.614;0.0900269
3.615;0.0924683
3.616;0.0949097
3.617;0.0973511
3.618;0.100098
3.619;0.102234
3.62;0.10437
3.621;0.105896
3.622;0.107422
3.623;0.108643
3.624;0.109863
3.625;0.111389
3.626;0.113525
3.627;0.116272
3.628;0.119934
3.629;0.123901
3.63;0.128479
3.631;0.132446
3.632;0.136108
3.633;0.139465
3.634;0.142212
3.635;0.144653
3.636;0.1474
3.637;0.149841
3.638;0.152588
3.639;0.15564
3.64;0.158386
3.641;0.160828
3.642;0.163269
3.643;0.1651
3.644;0.166626
3.645;0.167236
3.646;0.167542
3.647;0.166931
3.648;0.165405
3.649;0.162964
3.65;0.159607
3.651;0.15564
3.652;0.151062
3.653;0.145874
3.654;0.140381
3.655;0.134888
3.656;0.1297
3.657;0.124512
3.658;0.119934
3.659;0.115356
3.66;0.111084
3.661;0.107117
3.662;0.102844
3.663;0.0985718
3.664;0.0939941
3.665;0.0894165
3.666;0.085144
3.667;0.0811768
3.668;0.0778198
3.669;0.0753784
3.67;0.0732422
3.671;0.0714111
3.672;0.0689697
3.673;0.0665283
3.674;0.0640869
3.675;0.0616455
3.676;0.0588989
3.677;0.0561523
3.678;0.0527954
3.679;0.0494385
3.68;0.0460815
3.681;0.0430298
3.682;0.039978
3.683;0.0375366
3.684;0.03479
3.685;0.0323486
3.686;0.0296021
3.687;0.0274658
3.688;0.0253296
3.689;0.0234985
3.69;0.0219727
3.691;0.020752
3.692;0.0195312
3.693;0.0183105
3.694;0.0170898
3.695;0.0158691
3.696;0.0149536
3.697;0.0146484
3.698;0.0146484
3.699;0.0149536
3.7;0.0158691
3.701;0.0170898
3.702;0.0186157
3.703;0.0201416
3.704;0.0216675
3.705;0.0228882
3.706;0.0241089
3.707;0.0253296
3.708;0.0262451
3.709;0.0265503
3.71;0.0268555
3.711;0.0265503
3.712;0.0262451
3.713;0.0259399
3.714;0.0256348
3.715;0.0253296
3.716;0.0256348
3.717;0.0262451
3.718;0.0268555
3.719;0.027771
3.72;0.0286865
3.721;0.0296021
3.722;0.0305176
3.723;0.0314331
3.724;0.0320435
3.725;0.0326538
3.726;0.032959
3.727;0.032959
3.728;0.0332642
3.729;0.0335693
3.73;0.0341797
3.731;0.03479
3.732;0.0350952
3.733;0.0357056
3.734;0.0360107
3.735;0.0360107
3.736;0.0357056
3.737;0.0350952
3.738;0.0341797
3.739;0.0332642
3.74;0.0323486
3.741;0.0314331
3.742;0.0308228
3.743;0.0305176
3.744;0.0305176
3.745;0.0314331
3.746;0.0335693
3.747;0.0369263
3.748;0.0415039
3.749;0.0476074
3.75;0.0552368
3.751;0.0643921
3.752;0.0753784
3.753;0.088501
3.754;0.104065
3.755;0.12146
3.756;0.141296
3.757;0.162659
3.758;0.186157
3.759;0.210876
3.76;0.237427
3.761;0.265198
3.762;0.294189
3.763;0.322876
3.764;0.350647
3.765;0.376587
3.766;0.39978
3.767;0.419922
3.768;0.436096
3.769;0.448303
3.77;0.456848
3.771;0.461121
3.772;0.46051
3.773;0.455322
3.774;0.445251
3.775;0.429688
3.776;0.409546
3.777;0.384521
3.778;0.354919
3.779;0.32196
3.78;0.28595
3.781;0.247498
3.782;0.207825
3.783;0.167236
3.784;0.126953
3.785;0.0872803
3.786;0.0494385
3.787;0.0137329
3.788;-0.0192261
3.789;-0.0491333
3.79;-0.0759888
3.791;-0.0991821
3.792;-0.118713
3.793;-0.135193
3.794;-0.148926
3.795;-0.159607
3.796;-0.167847
3.797;-0.17334
3.798;-0.176392
3.799;-0.177002
3.8;-0.175781
3.801;-0.172729
3.802;-0.168457
3.803;-0.162964
3.804;-0.15686
3.805;-0.150452
3.806;-0.143738
3.807;-0.136414
3.808;-0.129089
3.809;-0.121155
3.81;-0.113525
3.811;-0.105286
3.812;-0.0970459
3.813;-0.088501
3.814;-0.0790405
3.815;-0.0689697
3.816;-0.0579834
3.817;-0.0469971
3.818;-0.0360107
3.819;-0.0256348
3.82;-0.0158691
3.821;-0.00701904
3.822;0.000915527
3.823;0.00823975
3.824;0.0146484
3.825;0.0201416
3.826;0.0250244
3.827;0.0292969
3.828;0.0323486
3.829;0.03479
3.83;0.0366211
3.831;0.0375366
3.832;0.0384521
3.833;0.0387573
3.834;0.0384521
3.835;0.0378418
3.836;0.0372314
3.837;0.0372314
3.838;0.0372314
3.839;0.0375366
3.84;0.038147
3.841;0.0390625
3.842;0.039978
3.843;0.0415039
3.844;0.0436401
3.845;0.0457764
3.846;0.0482178
3.847;0.0509644
3.848;0.0540161
3.849;0.0564575
3.85;0.0588989
3.851;0.0610352
3.852;0.0628662
3.853;0.0640869
3.854;0.0653076
3.855;0.0656128
3.856;0.0653076
3.857;0.0640869
3.858;0.062561
3.859;0.0604248
3.86;0.0579834
3.861;0.055542
3.862;0.0531006
3.863;0.0515747
3.864;0.0500488
3.865;0.0491333
3.866;0.0482178
3.867;0.0476074
3.868;0.0466919
3.869;0.0463867
3.87;0.0463867
3.871;0.0466919
3.872;0.0479126
3.873;0.0491333
3.874;0.0509644
3.875;0.0531006
3.876;0.0552368
3.877;0.0570679
3.878;0.0588989
3.879;0.0604248
3.88;0.0610352
3.881;0.0613403
3.882;0.06073
3.883;0.0598145
3.884;0.0585938
3.885;0.0576782
3.886;0.0570679
3.887;0.0561523
3.888;0.0558472
3.889;0.0552368
3.89;0.0549316
3.891;0.0543213
3.892;0.0534058
3.893;0.0527954
3.894;0.0521851
3.895;0.0524902
3.896;0.0531006
3.897;0.0543213
3.898;0.055542
3.899;0.057373
3.9;0.0592041
3.901;0.0610352
3.902;0.0634766
3.903;0.065918
3.904;0.0689697
3.905;0.0720215
3.906;0.0747681
3.907;0.0775146
3.908;0.0796509
3.909;0.0814819
3.91;0.0827026
3.911;0.083313
3.912;0.083313
3.913;0.083313
3.914;0.0830078
3.915;0.0827026
3.916;0.0823975
3.917;0.0820923
3.918;0.0817871
3.919;0.0811768
3.92;0.0802612
3.921;0.0790405
3.922;0.0778198
3.923;0.0765991
3.924;0.0750732
3.925;0.0735474
3.926;0.0720215
3.927;0.0698853
3.928;0.067749
3.929;0.065918
3.93;0.0640869
3.931;0.0628662
3.932;0.0616455
3.933;0.0613403
3.934;0.0613403
3.935;0.0613403
3.936;0.0619507
3.937;0.0622559
3.938;0.062561
3.939;0.0631714
3.94;0.0637817
3.941;0.0646973
3.942;0.0656128
3.943;0.0665283
3.944;0.0674438
3.945;0.0680542
3.946;0.0689697
3.947;0.0704956
3.948;0.0720215
3.949;0.0738525
3.95;0.0753784
3.951;0.0769043
3.952;0.0784302
3.953;0.0793457
3.954;0.0799561
3.955;0.0805664
3.956;0.0814819
3.957;0.0823975
3.958;0.0836182
3.959;0.0848389
3.96;0.0857544
3.961;0.0866699
3.962;0.0875854
3.963;0.088501
3.964;0.0897217
3.965;0.0909424
3.966;0.0924683
3.967;0.0939941
3.968;0.09552
3.969;0.0973511
3.97;0.0994873
3.971;0.101624
3.972;0.10376
3.973;0.105591
3.974;0.107422
3.975;0.108643
3.976;0.109558
3.977;0.109863
3.978;0.110474
3.979;0.111084
3.98;0.111694
3.981;0.11261
3.982;0.113525
3.983;0.114441
3.984;0.115356
3.985;0.115662
3.986;0.115967
3.987;0.115967
3.988;0.115967
3.989;0.115662
3.99;0.115662
3.991;0.115967
3.992;0.116272
3.993;0.116882
3.994;0.117493
3.995;0.118103
3.996;0.118713
3.997;0.119324
3.998;0.120544
3.999;0.12146
4;0.122681
4.001;0.123901
4.002;0.125122
4.003;0.126343
4.004;0.128174
4.005;0.1297
4.006;0.131531
4.007;0.133057
4.008;0.134888
4.009;0.136719
4.01;0.138245
4.011;0.140381
4.012;0.142517
4.013;0.144958
4.014;0.147705
4.015;0.150146
4.016;0.152283
4.017;0.154419
4.018;0.155945
4.019;0.157471
4.02;0.158386
4.021;0.158997
4.022;0.159302
4.023;0.159302
4.024;0.159302
4.025;0.159607
4.026;0.160522
4.027;0.161743
4.028;0.163574
4.029;0.1651
4.03;0.166626
4.031;0.167542
4.032;0.168152
4.033;0.168457
4.034;0.168762
4.035;0.168762
4.036;0.169373
4.037;0.169983
4.038;0.170593
4.039;0.171509
4.04;0.172424
4.041;0.173035
4.042;0.17334
4.043;0.173035
4.044;0.172729
4.045;0.172729
4.046;0.173035
4.047;0.173645
4.048;0.174255
4.049;0.174561
4.05;0.174866
4.051;0.174255
4.052;0.173645
4.053;0.172424
4.054;0.171204
4.055;0.169678
4.056;0.168152
4.057;0.166321
4.058;0.164185
4.059;0.161743
4.06;0.159302
4.061;0.156555
4.062;0.154114
4.063;0.151672
4.064;0.149231
4.065;0.14679
4.066;0.144348
4.067;0.141296
4.068;0.138245
4.069;0.135193
4.07;0.132141
4.071;0.129395
4.072;0.126343
4.073;0.123901
4.074;0.12146
4.075;0.119324
4.076;0.117188
4.077;0.115662
4.078;0.113831
4.079;0.112
4.08;0.110168
4.081;0.108337
4.082;0.106201
4.083;0.104065
4.084;0.101929
4.085;0.0994873
4.086;0.0973511
4.087;0.09552
4.088;0.0933838
4.089;0.0912476
4.09;0.088501
4.091;0.0854492
4.092;0.0820923
4.093;0.0784302
4.094;0.0747681
4.095;0.0714111
4.096;0.0683594
4.097;0.0656128
4.098;0.0637817
4.099;0.0619507
4.1;0.06073
4.101;0.0592041
4.102;0.0579834
4.103;0.0567627
4.104;0.055542
4.105;0.0546265
4.106;0.0537109
4.107;0.0531006
4.108;0.0531006
4.109;0.0531006
4.11;0.0537109
4.111;0.0543213
4.112;0.0552368
4.113;0.0564575
4.114;0.0576782
4.115;0.0585938
4.116;0.0595093
4.117;0.0601196
4.118;0.0604248
4.119;0.06073
4.12;0.0604248
4.121;0.0601196
4.122;0.0598145
4.123;0.0592041
4.124;0.0588989
4.125;0.0582886
4.126;0.0579834
4.127;0.0579834
4.128;0.0582886
4.129;0.0588989
4.13;0.0595093
4.131;0.0598145
4.132;0.0601196
4.133;0.0604248
4.134;0.0610352
4.135;0.0613403
4.136;0.0619507
4.137;0.0628662
4.138;0.0640869
4.139;0.0653076
4.14;0.0665283
4.141;0.067749
4.142;0.0683594
4.143;0.0689697
4.144;0.0686646
4.145;0.0683594
4.146;0.0680542
4.147;0.0680542
4.148;0.0683594
4.149;0.0686646
4.15;0.0686646
4.151;0.0683594
4.152;0.0680542
4.153;0.067749
4.154;0.0671387
4.155;0.0671387
4.156;0.0674438
4.157;0.0680542
4.158;0.0692749
4.159;0.0704956
4.16;0.0717163
4.161;0.072937
4.162;0.0741577
4.163;0.0756836
4.164;0.0772095
4.165;0.0787354
4.166;0.0802612
4.167;0.0814819
4.168;0.0820923
4.169;0.0823975
4.17;0.0823975
4.171;0.0820923
4.172;0.0817871
4.173;0.0811768
4.174;0.0805664
4.175;0.0793457
4.176;0.0784302
4.177;0.0775146
4.178;0.0772095
4.179;0.0769043
4.18;0.0762939
4.181;0.0759888
4.182;0.0753784
4.183;0.0744629
4.184;0.0735474
4.185;0.0732422
4.186;0.0732422
4.187;0.0738525
4.188;0.0747681
4.189;0.0762939
4.19;0.0778198
4.191;0.0793457
4.192;0.0805664
4.193;0.0817871
4.194;0.0827026
4.195;0.083313
4.196;0.0842285
4.197;0.085144
4.198;0.0860596
4.199;0.0866699
4.2;0.0872803
4.201;0.0872803
4.202;0.0869751
4.203;0.0863647
4.204;0.085144
4.205;0.0839233
4.206;0.0820923
4.207;0.0802612
4.208;0.078125
4.209;0.0759888
4.21;0.0738525
4.211;0.0720215
4.212;0.0701904
4.213;0.0686646
4.214;0.067749
4.215;0.0671387
4.216;0.0668335
4.217;0.0665283
4.218;0.0668335
4.219;0.0671387
4.22;0.0674438
4.221;0.067749
4.222;0.0680542
4.223;0.0686646
4.224;0.0689697
4.225;0.0692749
4.226;0.0695801
4.227;0.0701904
4.228;0.0704956
4.229;0.0708008
4.23;0.0708008
4.231;0.0701904
4.232;0.0692749
4.233;0.0680542
4.234;0.0662231
4.235;0.0646973
4.236;0.0631714
4.237;0.0622559
4.238;0.0613403
4.239;0.06073
4.24;0.0601196
4.241;0.0595093
4.242;0.0588989
4.243;0.0582886
4.244;0.0579834
4.245;0.0582886
4.246;0.0588989
4.247;0.0598145
4.248;0.0613403
4.249;0.0628662
4.25;0.0643921
4.251;0.065918
4.252;0.0671387
4.253;0.0680542
4.254;0.0689697
4.255;0.0698853
4.256;0.0701904
4.257;0.0701904
4.258;0.0704956
4.259;0.0704956
4.26;0.0708008
4.261;0.0708008
4.262;0.071106
4.263;0.0708008
4.264;0.0701904
4.265;0.0695801
4.266;0.0683594
4.267;0.0668335
4.268;0.0650024
4.269;0.0631714
4.27;0.0616455
4.271;0.0601196
4.272;0.0585938
4.273;0.0576782
4.274;0.0567627
4.275;0.0561523
4.276;0.055542
4.277;0.0549316
4.278;0.0546265
4.279;0.0543213
4.28;0.0546265
4.281;0.0549316
4.282;0.0558472
4.283;0.0564575
4.284;0.0567627
4.285;0.057373
4.286;0.0579834
4.287;0.0592041
4.288;0.0604248
4.289;0.0616455
4.29;0.0631714
4.291;0.0640869
4.292;0.0653076
4.293;0.0662231
4.294;0.0671387
4.295;0.0674438
4.296;0.0674438
4.297;0.0671387
4.298;0.0665283
4.299;0.0656128
4.3;0.0646973
4.301;0.0631714
4.302;0.0613403
4.303;0.0592041
4.304;0.0567627
4.305;0.0546265
4.306;0.0524902
4.307;0.0509644
4.308;0.0500488
4.309;0.0494385
4.31;0.0494385
4.311;0.0491333
4.312;0.0491333
4.313;0.0491333
4.314;0.0497437
4.315;0.0506592
4.316;0.0515747
4.317;0.0527954
4.318;0.0537109
4.319;0.0549316
4.32;0.0561523
4.321;0.0576782
4.322;0.0595093
4.323;0.0610352
4.324;0.0622559
4.325;0.0631714
4.326;0.0634766
4.327;0.0631714
4.328;0.062561
4.329;0.0616455
4.33;0.0604248
4.331;0.0588989
4.332;0.057373
4.333;0.0561523
4.334;0.0549316
4.335;0.0543213
4.336;0.0543213
4.337;0.0543213
4.338;0.0546265
4.339;0.055542
4.34;0.0567627
4.341;0.0582886
4.342;0.0601196
4.343;0.062561
4.344;0.0656128
4.345;0.0686646
4.346;0.0726318
4.347;0.0762939
4.348;0.0802612
4.349;0.0836182
4.35;0.0869751
4.351;0.0897217
4.352;0.0918579
4.353;0.0939941
4.354;0.09552
4.355;0.0970459
4.356;0.0982666
4.357;0.098877
4.358;0.0991821
4.359;0.098877
4.36;0.0982666
4.361;0.0973511
4.362;0.0961304
4.363;0.0949097
4.364;0.0933838
4.365;0.0924683
4.366;0.0915527
4.367;0.0912476
4.368;0.0909424
4.369;0.0909424
4.37;0.0909424
4.371;0.0918579
4.372;0.0933838
4.373;0.09552
4.374;0.0982666
4.375;0.101318
4.376;0.10437
4.377;0.107422
4.378;0.110779
4.379;0.114441
4.38;0.117798
4.381;0.121155
4.382;0.124207
4.383;0.127258
4.384;0.13031
4.385;0.133667
4.386;0.137024
4.387;0.140686
4.388;0.144043
4.389;0.14679
4.39;0.149231
4.391;0.151062
4.392;0.151978
4.393;0.152283
4.394;0.151978
4.395;0.151672
4.396;0.151062
4.397;0.150452
4.398;0.150146
4.399;0.149231
4.4;0.14801
4.401;0.14679
4.402;0.144958
4.403;0.143127
4.404;0.140991
4.405;0.13855
4.406;0.135803
4.407;0.133057
4.408;0.13031
4.409;0.127563
4.41;0.124817
4.411;0.12207
4.412;0.119324
4.413;0.116577
4.414;0.114136
4.415;0.111389
4.416;0.108643
4.417;0.105591
4.418;0.102234
4.419;0.098877
4.42;0.09552
4.421;0.0924683
4.422;0.0894165
4.423;0.0863647
4.424;0.083313
4.425;0.0802612
4.426;0.0772095
4.427;0.0741577
4.428;0.0708008
4.429;0.0680542
4.43;0.0650024
4.431;0.062561
4.432;0.0601196
4.433;0.0576782
4.434;0.055542
4.435;0.0531006
4.436;0.0509644
4.437;0.0482178
4.438;0.0454712
4.439;0.0430298
4.44;0.0405884
4.441;0.038147
4.442;0.0363159
4.443;0.03479
4.444;0.032959
4.445;0.0311279
4.446;0.0292969
4.447;0.0274658
4.448;0.0256348
4.449;0.0234985
4.45;0.0216675
4.451;0.0195312
4.452;0.0170898
4.453;0.0152588
4.454;0.0134277
4.455;0.0119019
4.456;0.0109863
4.457;0.010376
4.458;0.0100708
4.459;0.00976562
4.46;0.00976562
4.461;0.00946045
4.462;0.00976562
4.463;0.0100708
4.464;0.0109863
4.465;0.0119019
4.466;0.0131226
4.467;0.0143433
4.468;0.0158691
4.469;0.017395
4.47;0.0189209
4.471;0.0204468
4.472;0.0216675
4.473;0.0228882
4.474;0.0241089
4.475;0.0256348
4.476;0.0265503
4.477;0.0274658
4.478;0.027771
4.479;0.0280762
4.48;0.0280762
4.481;0.027771
4.482;0.0271606
4.483;0.0265503
4.484;0.0256348
4.485;0.0241089
4.486;0.0222778
4.487;0.0198364
4.488;0.0164795
4.489;0.0128174
4.49;0.00915527
4.491;0.00549316
4.492;0.00213623
4.493;-0.000610352
4.494;-0.00244141
4.495;-0.00396729
4.496;-0.00457764
4.497;-0.00457764
4.498;-0.00427246
4.499;-0.00335693
4.5;-0.00152588
4.501;0.00183105
4.502;0.00701904
4.503;0.0143433
4.504;0.0238037
4.505;0.0357056
4.506;0.0500488
4.507;0.0662231
4.508;0.0842285
4.509;0.104065
4.51;0.125732
4.511;0.149231
4.512;0.174255
4.513;0.201111
4.514;0.229492
4.515;0.259094
4.516;0.290222
4.517;0.32196
4.518;0.354004
4.519;0.385132
4.52;0.414734
4.521;0.441895
4.522;0.465698
4.523;0.486145
4.524;0.502319
4.525;0.514526
4.526;0.522461
4.527;0.525818
4.528;0.523987
4.529;0.517273
4.53;0.505371
4.531;0.487976
4.532;0.466003
4.533;0.439758
4.534;0.409851
4.535;0.376892
4.536;0.341187
4.537;0.30304
4.538;0.263672
4.539;0.223083
4.54;0.181885
4.541;0.141296
4.542;0.102234
4.543;0.0646973
4.544;0.0302124
4.545;-0.00152588
4.546;-0.0302124
4.547;-0.055542
4.548;-0.0775146
4.549;-0.0964355
4.55;-0.11261
4.551;-0.125732
4.552;-0.136108
4.553;-0.143433
4.554;-0.148621
4.555;-0.151672
4.556;-0.152588
4.557;-0.151672
4.558;-0.149536
4.559;-0.146179
4.56;-0.141602
4.561;-0.135803
4.562;-0.1297
4.563;-0.122986
4.564;-0.116272
4.565;-0.109253
4.566;-0.102539
4.567;-0.09552
4.568;-0.0878906
4.569;-0.0799561
4.57;-0.0717163
4.571;-0.0634766
4.572;-0.0549316
4.573;-0.0466919
4.574;-0.0390625
4.575;-0.0317383
4.576;-0.0250244
4.577;-0.0183105
4.578;-0.0119019
4.579;-0.00610352
4.58;-0.0012207
4.581;0.00213623
4.582;0.00457764
4.583;0.00610352
4.584;0.00640869
4.585;0.00640869
4.586;0.00640869
4.587;0.00640869
4.588;0.00640869
4.589;0.00640869
4.59;0.00610352
4.591;0.00579834
4.592;0.00549316
4.593;0.00488281
4.594;0.00427246
4.595;0.00396729
4.596;0.00366211
4.597;0.00366211
4.598;0.00396729
4.599;0.00396729
4.6;0.00457764
4.601;0.00549316
4.602;0.00640869
4.603;0.00762939
4.604;0.00915527
4.605;0.0109863
4.606;0.0128174
4.607;0.0146484
4.608;0.0164795
4.609;0.0180054
4.61;0.0192261
4.611;0.0201416
4.612;0.0204468
4.613;0.020752
4.614;0.020752
4.615;0.020752
4.616;0.0210571
4.617;0.0216675
4.618;0.0222778
4.619;0.0231934
4.62;0.0244141
4.621;0.0253296
4.622;0.0262451
4.623;0.0271606
4.624;0.0280762
4.625;0.0289917
4.626;0.0302124
4.627;0.0311279
4.628;0.0320435
4.629;0.032959
4.63;0.0338745
4.631;0.03479
4.632;0.0354004
4.633;0.0357056
4.634;0.0357056
4.635;0.0350952
4.636;0.0338745
4.637;0.0323486
4.638;0.0305176
4.639;0.0286865
4.64;0.0268555
4.641;0.0250244
4.642;0.0234985
4.643;0.0222778
4.644;0.0213623
4.645;0.020752
4.646;0.0204468
4.647;0.020752
4.648;0.0210571
4.649;0.0216675
4.65;0.0222778
4.651;0.0228882
4.652;0.0241089
4.653;0.0256348
4.654;0.027771
4.655;0.0302124
4.656;0.032959
4.657;0.0360107
4.658;0.0387573
4.659;0.0411987
4.66;0.0436401
4.661;0.0457764
4.662;0.0473022
4.663;0.0482178
4.664;0.0488281
4.665;0.0494385
4.666;0.0494385
4.667;0.0497437
4.668;0.050354
4.669;0.0506592
4.67;0.0506592
4.671;0.0506592
4.672;0.050354
4.673;0.0497437
4.674;0.0494385
4.675;0.0488281
4.676;0.0485229
4.677;0.0482178
4.678;0.0479126
4.679;0.0476074
4.68;0.0473022
4.681;0.0469971
4.682;0.0469971
4.683;0.0466919
4.684;0.0466919
4.685;0.0466919
4.686;0.0469971
4.687;0.0469971
4.688;0.0469971
4.689;0.0469971
4.69;0.0473022
4.691;0.0476074
4.692;0.0482178
4.693;0.0491333
4.694;0.0500488
4.695;0.0509644
4.696;0.0515747
4.697;0.0521851
4.698;0.0531006
4.699;0.0540161
4.7;0.0552368
4.701;0.0561523
4.702;0.0567627
4.703;0.0570679
4.704;0.057373
4.705;0.0576782
4.706;0.0579834
4.707;0.0582886
4.708;0.0592041
4.709;0.0604248
4.71;0.0619507
4.711;0.0634766
4.712;0.0646973
4.713;0.0653076
4.714;0.0656128
4.715;0.0650024
4.716;0.0643921
4.717;0.0637817
4.718;0.0634766
4.719;0.0634766
4.72;0.0640869
4.721;0.0653076
4.722;0.0668335
4.723;0.0689697
4.724;0.0714111
4.725;0.0735474
4.726;0.0756836
4.727;0.0775146
4.728;0.0790405
4.729;0.0799561
4.73;0.0811768
4.731;0.0820923
4.732;0.083313
4.733;0.085144
4.734;0.0869751
4.735;0.0888062
4.736;0.0906372
4.737;0.0924683
4.738;0.0939941
4.739;0.09552
4.74;0.0970459
4.741;0.0985718
4.742;0.0997925
4.743;0.101013
4.744;0.102234
4.745;0.10376
4.746;0.10498
4.747;0.106506
4.748;0.108032
4.749;0.109558
4.75;0.111389
4.751;0.11322
4.752;0.115051
4.753;0.116577
4.754;0.118408
4.755;0.120544
4.756;0.122681
4.757;0.124817
4.758;0.126953
4.759;0.128479
4.76;0.13031
4.761;0.132446
4.762;0.134277
4.763;0.136414
4.764;0.138245
4.765;0.140381
4.766;0.141907
4.767;0.143433
4.768;0.145264
4.769;0.147095
4.77;0.148926
4.771;0.150757
4.772;0.152283
4.773;0.153809
4.774;0.155029
4.775;0.15625
4.776;0.157471
4.777;0.158386
4.778;0.159607
4.779;0.160522
4.78;0.161133
4.781;0.162048
4.782;0.162964
4.783;0.163574
4.784;0.16449
4.785;0.1651
4.786;0.16571
4.787;0.166321
4.788;0.166626
4.789;0.166931
4.79;0.167236
4.791;0.167542
4.792;0.167847
4.793;0.167847
4.794;0.167847
4.795;0.167847
4.796;0.167847
4.797;0.168152
4.798;0.168152
4.799;0.168457
4.8;0.168762
4.801;0.168762
4.802;0.168762
4.803;0.168457
4.804;0.167847
4.805;0.166931
4.806;0.16571
4.807;0.163879
4.808;0.162048
4.809;0.160217
4.81;0.157776
4.811;0.155029
4.812;0.151978
4.813;0.149231
4.814;0.146484
4.815;0.144043
4.816;0.141602
4.817;0.13916
4.818;0.136414
4.819;0.133667
4.82;0.130615
4.821;0.127258
4.822;0.124207
4.823;0.12146
4.824;0.118408
4.825;0.115662
4.826;0.112915
4.827;0.109863
4.828;0.106812
4.829;0.103455
4.83;0.0997925
4.831;0.0961304
4.832;0.0927734
4.833;0.0897217
4.834;0.0866699
4.835;0.083313
4.836;0.0796509
4.837;0.0756836
4.838;0.0717163
4.839;0.0680542
4.84;0.0650024
4.841;0.0622559
4.842;0.0601196
4.843;0.0579834
4.844;0.0564575
4.845;0.0549316
4.846;0.0534058
4.847;0.0518799
4.848;0.0506592
4.849;0.0494385
4.85;0.0479126
4.851;0.0463867
4.852;0.0445557
4.853;0.0427246
4.854;0.0405884
4.855;0.038147
4.856;0.0357056
4.857;0.032959
4.858;0.0302124
4.859;0.027771
4.86;0.0250244
4.861;0.0222778
4.862;0.0195312
4.863;0.0164795
4.864;0.0137329
4.865;0.0109863
4.866;0.00854492
4.867;0.00640869
4.868;0.00488281
4.869;0.00366211
4.87;0.00305176
4.871;0.00274658
4.872;0.00305176
4.873;0.00396729
4.874;0.00518799
4.875;0.00671387
4.876;0.00823975
4.877;0.00946045
4.878;0.010376
4.879;0.0112915
4.88;0.0115967
4.881;0.0112915
4.882;0.010376
4.883;0.0088501
4.884;0.00701904
4.885;0.00518799
4.886;0.00396729
4.887;0.00305176
4.888;0.00274658
4.889;0.00274658
4.89;0.00244141
4.891;0.00213623
4.892;0.00183105
4.893;0.00183105
4.894;0.00183105
4.895;0.00213623
4.896;0.00305176
4.897;0.00396729
4.898;0.00518799
4.899;0.00671387
4.9;0.00854492
4.901;0.010376
4.902;0.0125122
4.903;0.0143433
4.904;0.0161743
4.905;0.0177002
4.906;0.0189209
4.907;0.0192261
4.908;0.0192261
4.909;0.0186157
4.91;0.0177002
4.911;0.0164795
4.912;0.0152588
4.913;0.0140381
4.914;0.0128174
4.915;0.0119019
4.916;0.0112915
4.917;0.010376
4.918;0.00976562
4.919;0.00946045
4.92;0.00915527
4.921;0.00946045
4.922;0.0100708
4.923;0.0109863
4.924;0.012207
4.925;0.0137329
4.926;0.015564
4.927;0.0177002
4.928;0.0198364
4.929;0.0216675
4.93;0.0231934
4.931;0.0241089
4.932;0.0244141
4.933;0.0247192
4.934;0.0244141
4.935;0.0241089
4.936;0.0234985
4.937;0.022583
4.938;0.0216675
4.939;0.020752
4.94;0.0198364
4.941;0.0192261
4.942;0.0183105
4.943;0.0177002
4.944;0.0170898
4.945;0.0161743
4.946;0.0152588
4.947;0.0143433
4.948;0.0134277
4.949;0.0128174
4.95;0.0128174
4.951;0.0134277
4.952;0.0143433
4.953;0.0161743
4.954;0.0180054
4.955;0.0198364
4.956;0.0213623
4.957;0.0228882
4.958;0.0241089
4.959;0.0253296
4.96;0.0265503
4.961;0.027771
4.962;0.0286865
4.963;0.0292969
4.964;0.0292969
4.965;0.0292969
4.966;0.0283813
4.967;0.0274658
4.968;0.0262451
4.969;0.0247192
4.97;0.0228882
4.971;0.0210571
4.972;0.0192261
4.973;0.0177002
4.974;0.0164795
4.975;0.0152588
4.976;0.0140381
4.977;0.0125122
4.978;0.0106812
4.979;0.0088501
4.98;0.00701904
4.981;0.00518799
4.982;0.00335693
4.983;0.00244141
4.984;0.00213623
4.985;0.00244141
4.986;0.00305176
4.987;0.00427246
4.988;0.00579834
4.989;0.00762939
4.99;0.00946045
4.991;0.0115967
4.992;0.0137329
4.993;0.015564
4.994;0.0170898
4.995;0.0186157
4.996;0.0195312
4.997;0.0204468
4.998;0.0210571
4.999;0.0216675
5;0.0228882
5.001;0.0238037
5.002;0.0244141
5.003;0.0244141
5.004;0.0241089
5.005;0.0231934
5.006;0.0216675
5.007;0.0201416
5.008;0.0180054
5.009;0.0161743
5.01;0.0137329
5.011;0.0115967
5.012;0.0088501
5.013;0.00640869
5.014;0.00366211
5.015;0.000915527
5.016;-0.000915527
5.017;-0.00274658
5.018;-0.00396729
5.019;-0.00518799
5.02;-0.00579834
5.021;-0.00579834
5.022;-0.00518799
5.023;-0.00396729
5.024;-0.00274658
5.025;-0.000915527
5.026;0.000610352
5.027;0.00244141
5.028;0.00427246
5.029;0.00610352
5.03;0.00793457
5.031;0.00946045
5.032;0.0106812
5.033;0.0115967
5.034;0.012207
5.035;0.012207
5.036;0.0119019
5.037;0.0112915
5.038;0.0100708
5.039;0.0088501
5.04;0.00732422
5.041;0.00518799
5.042;0.00274658
5.043;-0.000305176
5.044;-0.00366211
5.045;-0.00701904
5.046;-0.0100708
5.047;-0.0128174
5.048;-0.0149536
5.049;-0.0164795
5.05;-0.0177002
5.051;-0.0183105
5.052;-0.0186157
5.053;-0.0186157
5.054;-0.0183105
5.055;-0.017395
5.056;-0.0161743
5.057;-0.0146484
5.058;-0.0125122
5.059;-0.0106812
5.06;-0.00854492
5.061;-0.00671387
5.062;-0.00488281
5.063;-0.00335693
5.064;-0.00183105
5.065;-0.000610352
5.066;0.000915527
5.067;0.00213623
5.068;0.00335693
5.069;0.00427246
5.07;0.00457764
5.071;0.00457764
5.072;0.00396729
5.073;0.00305176
5.074;0.00183105
5.075;0.000305176
5.076;-0.0012207
5.077;-0.00274658
5.078;-0.00427246
5.079;-0.00579834
5.08;-0.00701904
5.081;-0.00854492
5.082;-0.0100708
5.083;-0.0115967
5.084;-0.0137329
5.085;-0.0158691
5.086;-0.0177002
5.087;-0.0195312
5.088;-0.0210571
5.089;-0.0216675
5.09;-0.0219727
5.091;-0.0213623
5.092;-0.0204468
5.093;-0.0192261
5.094;-0.0180054
5.095;-0.0167847
5.096;-0.0158691
5.097;-0.0149536
5.098;-0.0137329
5.099;-0.0125122
5.1;-0.0112915
5.101;-0.0100708
5.102;-0.00915527
5.103;-0.00823975
5.104;-0.00793457
5.105;-0.00732422
5.106;-0.00640869
5.107;-0.00518799
5.108;-0.00366211
5.109;-0.00274658
5.11;-0.00213623
5.111;-0.00213623
5.112;-0.00274658
5.113;-0.00366211
5.114;-0.00518799
5.115;-0.00640869
5.116;-0.00762939
5.117;-0.00823975
5.118;-0.00823975
5.119;-0.00823975
5.12;-0.00823975
5.121;-0.00854492
5.122;-0.0088501
5.123;-0.00976562
5.124;-0.0109863
5.125;-0.0115967
5.126;-0.0119019
5.127;-0.0115967
5.128;-0.0106812
5.129;-0.00946045
5.13;-0.00793457
5.131;-0.00640869
5.132;-0.00427246
5.133;-0.00244141
5.134;-0.000610352
5.135;0.00152588
5.136;0.00335693
5.137;0.00579834
5.138;0.00823975
5.139;0.0112915
5.14;0.0146484
5.141;0.0183105
5.142;0.0219727
5.143;0.0256348
5.144;0.0286865
5.145;0.0317383
5.146;0.0341797
5.147;0.0363159
5.148;0.038147
5.149;0.0396729
5.15;0.0405884
5.151;0.0411987
5.152;0.0411987
5.153;0.0405884
5.154;0.0396729
5.155;0.0384521
5.156;0.0372314
5.157;0.0363159
5.158;0.0350952
5.159;0.0344849
5.16;0.0338745
5.161;0.0332642
5.162;0.032959
5.163;0.032959
5.164;0.0335693
5.165;0.0344849
5.166;0.0357056
5.167;0.0372314
5.168;0.0393677
5.169;0.0418091
5.17;0.0445557
5.171;0.0476074
5.172;0.0506592
5.173;0.0537109
5.174;0.0567627
5.175;0.0601196
5.176;0.0631714
5.177;0.0665283
5.178;0.0695801
5.179;0.0726318
5.18;0.0753784
5.181;0.0772095
5.182;0.078125
5.183;0.0778198
5.184;0.0762939
5.185;0.0738525
5.186;0.071106
5.187;0.0683594
5.188;0.0656128
5.189;0.0634766
5.19;0.0610352
5.191;0.0585938
5.192;0.0558472
5.193;0.0524902
5.194;0.0491333
5.195;0.0454712
5.196;0.0415039
5.197;0.038147
5.198;0.0344849
5.199;0.0314331
5.2;0.0283813
5.201;0.0256348
5.202;0.0234985
5.203;0.0213623
5.204;0.0192261
5.205;0.017395
5.206;0.0158691
5.207;0.0143433
5.208;0.0125122
5.209;0.010376
5.21;0.00793457
5.211;0.00457764
5.212;0.0012207
5.213;-0.00244141
5.214;-0.00579834
5.215;-0.0088501
5.216;-0.0119019
5.217;-0.0146484
5.218;-0.0170898
5.219;-0.0201416
5.22;-0.0231934
5.221;-0.0268555
5.222;-0.0308228
5.223;-0.0344849
5.224;-0.0384521
5.225;-0.0418091
5.226;-0.0445557
5.227;-0.0476074
5.228;-0.0500488
5.229;-0.0524902
5.23;-0.0546265
5.231;-0.0558472
5.232;-0.0567627
5.233;-0.0570679
5.234;-0.0576782
5.235;-0.0579834
5.236;-0.0585938
5.237;-0.0585938
5.238;-0.0588989
5.239;-0.0592041
5.24;-0.0595093
5.241;-0.0601196
5.242;-0.06073
5.243;-0.0610352
5.244;-0.0610352
5.245;-0.0610352
5.246;-0.0610352
5.247;-0.0610352
5.248;-0.06073
5.249;-0.0604248
5.25;-0.06073
5.251;-0.06073
5.252;-0.0610352
5.253;-0.0613403
5.254;-0.0619507
5.255;-0.0622559
5.256;-0.0628662
5.257;-0.0634766
5.258;-0.0634766
5.259;-0.0634766
5.26;-0.062561
5.261;-0.0616455
5.262;-0.0601196
5.263;-0.0585938
5.264;-0.0570679
5.265;-0.055542
5.266;-0.0543213
5.267;-0.0537109
5.268;-0.0531006
5.269;-0.0534058
5.27;-0.0537109
5.271;-0.0546265
5.272;-0.055542
5.273;-0.0564575
5.274;-0.0576782
5.275;-0.0592041
5.276;-0.0610352
5.277;-0.0628662
5.278;-0.0646973
5.279;-0.0665283
5.28;-0.0683594
5.281;-0.0698853
5.282;-0.0717163
5.283;-0.072937
5.284;-0.0735474
5.285;-0.0735474
5.286;-0.0720215
5.287;-0.0689697
5.288;-0.0637817
5.289;-0.0564575
5.29;-0.0476074
5.291;-0.0372314
5.292;-0.0247192
5.293;-0.0106812
5.294;0.00579834
5.295;0.0244141
5.296;0.0457764
5.297;0.0692749
5.298;0.0952148
5.299;0.122986
5.3;0.152893
5.301;0.184021
5.302;0.21637
5.303;0.249329
5.304;0.281982
5.305;0.313416
5.306;0.343018
5.307;0.369873
5.308;0.393982
5.309;0.415039
5.31;0.432739
5.311;0.446472
5.312;0.455627
5.313;0.459595
5.314;0.458374
5.315;0.45105
5.316;0.438538
5.317;0.420837
5.318;0.39856
5.319;0.372009
5.32;0.341492
5.321;0.307617
5.322;0.271606
5.323;0.233459
5.324;0.194702
5.325;0.155029
5.326;0.115356
5.327;0.0756836
5.328;0.0369263
5.329;-0.000610352
5.33;-0.0363159
5.331;-0.0692749
5.332;-0.0991821
5.333;-0.125732
5.334;-0.148621
5.335;-0.168152
5.336;-0.184021
5.337;-0.196838
5.338;-0.206604
5.339;-0.213623
5.34;-0.217896
5.341;-0.220032
5.342;-0.220032
5.343;-0.218201
5.344;-0.215149
5.345;-0.210876
5.346;-0.205688
5.347;-0.2005
5.348;-0.194702
5.349;-0.188599
5.35;-0.18219
5.351;-0.175476
5.352;-0.168152
5.353;-0.160522
5.354;-0.152283
5.355;-0.144348
5.356;-0.136414
5.357;-0.128784
5.358;-0.12146
5.359;-0.114441
5.36;-0.107727
5.361;-0.101624
5.362;-0.0964355
5.363;-0.0915527
5.364;-0.0878906
5.365;-0.085144
5.366;-0.0827026
5.367;-0.0805664
5.368;-0.0787354
5.369;-0.0772095
5.37;-0.0756836
5.371;-0.0747681
5.372;-0.0738525
5.373;-0.0735474
5.374;-0.0732422
5.375;-0.0732422
5.376;-0.0735474
5.377;-0.0741577
5.378;-0.0744629
5.379;-0.0750732
5.38;-0.0753784
5.381;-0.0756836
5.382;-0.0756836
5.383;-0.0753784
5.384;-0.0747681
5.385;-0.0738525
5.386;-0.072937
5.387;-0.0720215
5.388;-0.0714111
5.389;-0.0708008
5.39;-0.0704956
5.391;-0.0695801
5.392;-0.0683594
5.393;-0.0668335
5.394;-0.0646973
5.395;-0.0622559
5.396;-0.0601196
5.397;-0.0576782
5.398;-0.0558472
5.399;-0.0540161
5.4;-0.0531006
5.401;-0.0521851
5.402;-0.0521851
5.403;-0.0521851
5.404;-0.0521851
5.405;-0.0527954
5.406;-0.0531006
5.407;-0.0537109
5.408;-0.0537109
5.409;-0.0534058
5.41;-0.0531006
5.411;-0.0521851
5.412;-0.0512695
5.413;-0.0506592
5.414;-0.0500488
5.415;-0.0494385
5.416;-0.0491333
5.417;-0.0488281
5.418;-0.0485229
5.419;-0.0482178
5.42;-0.0476074
5.421;-0.0469971
5.422;-0.0460815
5.423;-0.0448608
5.424;-0.043335
5.425;-0.0418091
5.426;-0.0402832
5.427;-0.0390625
5.428;-0.0378418
5.429;-0.0372314
5.43;-0.0366211
5.431;-0.0363159
5.432;-0.0360107
5.433;-0.0360107
5.434;-0.0360107
5.435;-0.0366211
5.436;-0.0375366
5.437;-0.0384521
5.438;-0.0396729
5.439;-0.0408936
5.44;-0.0421143
5.441;-0.0436401
5.442;-0.0445557
5.443;-0.045166
5.444;-0.0454712
5.445;-0.045166
5.446;-0.0445557
5.447;-0.0436401
5.448;-0.0430298
5.449;-0.0427246
5.45;-0.0427246
5.451;-0.0427246
5.452;-0.0427246
5.453;-0.0424194
5.454;-0.0418091
5.455;-0.0405884
5.456;-0.0393677
5.457;-0.0384521
5.458;-0.0375366
5.459;-0.0369263
5.46;-0.0366211
5.461;-0.0360107
5.462;-0.0354004
5.463;-0.0344849
5.464;-0.0332642
5.465;-0.0320435
5.466;-0.0311279
5.467;-0.0299072
5.468;-0.0286865
5.469;-0.0274658
5.47;-0.0268555
5.471;-0.0262451
5.472;-0.0262451
5.473;-0.0265503
5.474;-0.0268555
5.475;-0.0274658
5.476;-0.0280762
5.477;-0.0289917
5.478;-0.0302124
5.479;-0.0314331
5.48;-0.0326538
5.481;-0.0335693
5.482;-0.0341797
5.483;-0.0344849
5.484;-0.03479
5.485;-0.03479
5.486;-0.03479
5.487;-0.0344849
5.488;-0.0344849
5.489;-0.0341797
5.49;-0.0338745
5.491;-0.032959
5.492;-0.0320435
5.493;-0.0308228
5.494;-0.0289917
5.495;-0.0271606
5.496;-0.0253296
5.497;-0.0234985
5.498;-0.0213623
5.499;-0.0195312
5.5;-0.0177002
5.501;-0.0161743
5.502;-0.0149536
5.503;-0.0140381
5.504;-0.0137329
5.505;-0.0137329
5.506;-0.0143433
5.507;-0.0149536
5.508;-0.015564
5.509;-0.0158691
5.51;-0.015564
5.511;-0.0152588
5.512;-0.0146484
5.513;-0.0143433
5.514;-0.0140381
5.515;-0.0140381
5.516;-0.0140381
5.517;-0.0140381
5.518;-0.0134277
5.519;-0.012207
5.52;-0.010376
5.521;-0.00823975
5.522;-0.00549316
5.523;-0.00274658
5.524;-0.000305176
5.525;0.00213623
5.526;0.00457764
5.527;0.00732422
5.528;0.010376
5.529;0.0134277
5.53;0.0167847
5.531;0.0201416
5.532;0.0234985
5.533;0.0268555
5.534;0.0299072
5.535;0.032959
5.536;0.0360107
5.537;0.0393677
5.538;0.0427246
5.539;0.0457764
5.54;0.0482178
5.541;0.050354
5.542;0.0518799
5.543;0.0537109
5.544;0.0552368
5.545;0.0567627
5.546;0.0585938
5.547;0.0604248
5.548;0.0622559
5.549;0.0643921
5.55;0.0662231
5.551;0.0683594
5.552;0.0708008
5.553;0.072937
5.554;0.0753784
5.555;0.0778198
5.556;0.0802612
5.557;0.0823975
5.558;0.0839233
5.559;0.0854492
5.56;0.0866699
5.561;0.0875854
5.562;0.088501
5.563;0.0894165
5.564;0.0900269
5.565;0.0909424
5.566;0.0915527
5.567;0.0918579
5.568;0.0921631
5.569;0.0921631
5.57;0.0918579
5.571;0.0906372
5.572;0.0894165
5.573;0.0875854
5.574;0.0854492
5.575;0.0836182
5.576;0.0820923
5.577;0.0808716
5.578;0.0799561
5.579;0.0793457
5.58;0.0796509
5.581;0.0808716
5.582;0.0827026
5.583;0.0848389
5.584;0.0872803
5.585;0.0894165
5.586;0.0915527
5.587;0.0933838
5.588;0.0946045
5.589;0.09552
5.59;0.0958252
5.591;0.0961304
5.592;0.0964355
5.593;0.0967407
5.594;0.0970459
5.595;0.0967407
5.596;0.0958252
5.597;0.0946045
5.598;0.0927734
5.599;0.090332
5.6;0.0878906
5.601;0.0848389
5.602;0.0814819
5.603;0.0775146
5.604;0.072937
5.605;0.0683594
5.606;0.0637817
5.607;0.0595093
5.608;0.055542
5.609;0.0518799
5.61;0.0485229
5.611;0.045166
5.612;0.0424194
5.613;0.039978
5.614;0.0375366
5.615;0.0350952
5.616;0.0323486
5.617;0.0289917
5.618;0.0250244
5.619;0.0210571
5.62;0.017395
5.621;0.0137329
5.622;0.010376
5.623;0.00732422
5.624;0.00366211
5.625;-0.000305176
5.626;-0.00488281
5.627;-0.00915527
5.628;-0.0137329
5.629;-0.0177002
5.63;-0.0216675
5.631;-0.0256348
5.632;-0.0292969
5.633;-0.032959
5.634;-0.0369263
5.635;-0.0405884
5.636;-0.0442505
5.637;-0.0476074
5.638;-0.050354
5.639;-0.0524902
5.64;-0.0546265
5.641;-0.0561523
5.642;-0.0576782
5.643;-0.0588989
5.644;-0.0601196
5.645;-0.0613403
5.646;-0.0619507
5.647;-0.062561
5.648;-0.0628662
5.649;-0.0628662
5.65;-0.0628662
5.651;-0.062561
5.652;-0.062561
5.653;-0.0622559
5.654;-0.0622559
5.655;-0.0622559
5.656;-0.062561
5.657;-0.0628662
5.658;-0.0631714
5.659;-0.0634766
5.66;-0.0637817
5.661;-0.0637817
5.662;-0.0637817
5.663;-0.0640869
5.664;-0.0640869
5.665;-0.0640869
5.666;-0.0640869
5.667;-0.0640869
5.668;-0.0643921
5.669;-0.0643921
5.67;-0.0643921
5.671;-0.0646973
5.672;-0.0650024
5.673;-0.0653076
5.674;-0.0656128
5.675;-0.0662231
5.676;-0.0665283
5.677;-0.0674438
5.678;-0.0680542
5.679;-0.0683594
5.68;-0.0680542
5.681;-0.0674438
5.682;-0.0665283
5.683;-0.0656128
5.684;-0.0646973
5.685;-0.0643921
5.686;-0.0643921
5.687;-0.0650024
5.688;-0.0656128
5.689;-0.065918
5.69;-0.0662231
5.691;-0.065918
5.692;-0.0653076
5.693;-0.0640869
5.694;-0.0628662
5.695;-0.0616455
5.696;-0.06073
5.697;-0.06073
5.698;-0.06073
5.699;-0.0613403
5.7;-0.0622559
5.701;-0.0628662
5.702;-0.0628662
5.703;-0.0628662
5.704;-0.0622559
5.705;-0.0619507
5.706;-0.0610352
5.707;-0.0604248
5.708;-0.0595093
5.709;-0.0592041
5.71;-0.0592041
5.711;-0.0592041
5.712;-0.0592041
5.713;-0.0588989
5.714;-0.0585938
5.715;-0.0579834
5.716;-0.0570679
5.717;-0.0561523
5.718;-0.0552368
5.719;-0.0543213
5.72;-0.0534058
5.721;-0.0527954
5.722;-0.0521851
5.723;-0.0521851
5.724;-0.0521851
5.725;-0.0524902
5.726;-0.0531006
5.727;-0.0537109
5.728;-0.0540161
5.729;-0.0546265
5.73;-0.0549316
5.731;-0.0552368
5.732;-0.0552368
5.733;-0.055542
5.734;-0.055542
5.735;-0.055542
5.736;-0.0552368
5.737;-0.0546265
5.738;-0.0540161
5.739;-0.0531006
5.74;-0.0524902
5.741;-0.0524902
5.742;-0.0524902
5.743;-0.0531006
5.744;-0.0537109
5.745;-0.0540161
5.746;-0.0543213
5.747;-0.0549316
5.748;-0.0558472
5.749;-0.057373
5.75;-0.0592041
5.751;-0.0613403
5.752;-0.0631714
5.753;-0.0643921
5.754;-0.0650024
5.755;-0.0646973
5.756;-0.0637817
5.757;-0.0628662
5.758;-0.0616455
5.759;-0.06073
5.76;-0.0601196
5.761;-0.0598145
5.762;-0.0598145
5.763;-0.0595093
5.764;-0.0592041
5.765;-0.0585938
5.766;-0.057373
5.767;-0.0558472
5.768;-0.0540161
5.769;-0.0521851
5.77;-0.0509644
5.771;-0.0500488
5.772;-0.0494385
5.773;-0.0497437
5.774;-0.050354
5.775;-0.0515747
5.776;-0.0531006
5.777;-0.0549316
5.778;-0.0570679
5.779;-0.0592041
5.78;-0.0610352
5.781;-0.0628662
5.782;-0.0646973
5.783;-0.065918
5.784;-0.0674438
5.785;-0.0683594
5.786;-0.0686646
5.787;-0.0686646
5.788;-0.0683594
5.789;-0.0680542
5.79;-0.067749
5.791;-0.0674438
5.792;-0.0671387
5.793;-0.0668335
5.794;-0.0662231
5.795;-0.0656128
5.796;-0.0646973
5.797;-0.0634766
5.798;-0.0622559
5.799;-0.0613403
5.8;-0.06073
5.801;-0.06073
5.802;-0.06073
5.803;-0.06073
5.804;-0.06073
5.805;-0.0610352
5.806;-0.0613403
5.807;-0.0613403
5.808;-0.0616455
5.809;-0.0619507
5.81;-0.0619507
5.811;-0.0622559
5.812;-0.062561
5.813;-0.0628662
5.814;-0.0628662
5.815;-0.0628662
5.816;-0.0628662
5.817;-0.0628662
5.818;-0.0628662
5.819;-0.0628662
5.82;-0.0628662
5.821;-0.0628662
5.822;-0.0631714
5.823;-0.0631714
5.824;-0.0631714
5.825;-0.0631714
5.826;-0.0631714
5.827;-0.0634766
5.828;-0.0643921
5.829;-0.0650024
5.83;-0.065918
5.831;-0.0662231
5.832;-0.0662231
5.833;-0.0656128
5.834;-0.0646973
5.835;-0.0637817
5.836;-0.0631714
5.837;-0.062561
5.838;-0.062561
5.839;-0.0628662
5.84;-0.0631714
5.841;-0.0634766
5.842;-0.0640869
5.843;-0.0643921
5.844;-0.0650024
5.845;-0.0662231
5.846;-0.0674438
5.847;-0.0689697
5.848;-0.0701904
5.849;-0.0714111
5.85;-0.0723267
5.851;-0.072937
5.852;-0.0735474
5.853;-0.0735474
5.854;-0.0738525
5.855;-0.0735474
5.856;-0.0735474
5.857;-0.0735474
5.858;-0.072937
5.859;-0.0723267
5.86;-0.0708008
5.861;-0.0683594
5.862;-0.065918
5.863;-0.0628662
5.864;-0.0601196
5.865;-0.057373
5.866;-0.0549316
5.867;-0.0524902
5.868;-0.0506592
5.869;-0.0491333
5.87;-0.0482178
5.871;-0.0476074
5.872;-0.0476074
5.873;-0.0479126
5.874;-0.0485229
5.875;-0.0497437
5.876;-0.0512695
5.877;-0.0534058
5.878;-0.0561523
5.879;-0.0588989
5.88;-0.0616455
5.881;-0.0637817
5.882;-0.065918
5.883;-0.0680542
5.884;-0.0701904
5.885;-0.0717163
5.886;-0.0732422
5.887;-0.0738525
5.888;-0.0738525
5.889;-0.0732422
5.89;-0.0726318
5.891;-0.0717163
5.892;-0.0708008
5.893;-0.0698853
5.894;-0.0692749
5.895;-0.0689697
5.896;-0.0686646
5.897;-0.0680542
5.898;-0.0671387
5.899;-0.065918
5.9;-0.0646973
5.901;-0.0631714
5.902;-0.0619507
5.903;-0.0613403
5.904;-0.0610352
5.905;-0.0610352
5.906;-0.0613403
5.907;-0.0619507
5.908;-0.0628662
5.909;-0.0640869
5.91;-0.0653076
5.911;-0.0665283
5.912;-0.067749
5.913;-0.0689697
5.914;-0.0698853
5.915;-0.0704956
5.916;-0.0708008
5.917;-0.0708008
5.918;-0.0708008
5.919;-0.0704956
5.92;-0.0698853
5.921;-0.0695801
5.922;-0.0689697
5.923;-0.0680542
5.924;-0.0671387
5.925;-0.0662231
5.926;-0.0656128
5.927;-0.0650024
5.928;-0.0650024
5.929;-0.0653076
5.93;-0.0662231
5.931;-0.0668335
5.932;-0.0674438
5.933;-0.067749
5.934;-0.0674438
5.935;-0.0668335
5.936;-0.0662231
5.937;-0.0656128
5.938;-0.0653076
5.939;-0.0656128
5.94;-0.0665283
5.941;-0.067749
5.942;-0.0689697
5.943;-0.0701904
5.944;-0.071106
5.945;-0.0717163
5.946;-0.0717163
5.947;-0.0714111
5.948;-0.0701904
5.949;-0.0683594
5.95;-0.0665283
5.951;-0.0640869
5.952;-0.0619507
5.953;-0.0598145
5.954;-0.0579834
5.955;-0.0561523
5.956;-0.0543213
5.957;-0.0527954
5.958;-0.0512695
5.959;-0.050354
5.96;-0.0497437
5.961;-0.0494385
5.962;-0.0491333
5.963;-0.0485229
5.964;-0.0473022
5.965;-0.045166
5.966;-0.0424194
5.967;-0.0396729
5.968;-0.0372314
5.969;-0.0350952
5.97;-0.0338745
5.971;-0.032959
5.972;-0.0323486
5.973;-0.0317383
5.974;-0.0311279
5.975;-0.0302124
5.976;-0.0292969
5.977;-0.0280762
5.978;-0.0268555
5.979;-0.0253296
5.98;-0.0238037
5.981;-0.0222778
5.982;-0.0204468
5.983;-0.0183105
5.984;-0.0164795
5.985;-0.0149536
5.986;-0.0137329
5.987;-0.0131226
5.988;-0.0128174
5.989;-0.0128174
5.99;-0.0128174
5.991;-0.0128174
5.992;-0.0125122
5.993;-0.0109863
5.994;-0.0088501
5.995;-0.00549316
5.996;-0.00183105
5.997;0.00183105
5.998;0.00549316
5.999;0.0088501
6;0.0119019
6.001;0.0146484
6.002;0.017395
6.003;0.0198364
6.004;0.022583
6.005;0.0256348
6.006;0.0283813
6.007;0.0314331
6.008;0.0344849
6.009;0.0369263
6.01;0.0384521
6.011;0.0393677
6.012;0.0396729
6.013;0.0390625
6.014;0.0378418
6.015;0.0357056
6.016;0.032959
6.017;0.0296021
6.018;0.0256348
6.019;0.0213623
6.02;0.0170898
6.021;0.012207
6.022;0.00701904
6.023;0.00183105
6.024;-0.00335693
6.025;-0.00854492
6.026;-0.0131226
6.027;-0.017395
6.028;-0.0210571
6.029;-0.0244141
6.03;-0.0271606
6.031;-0.0299072
6.032;-0.0320435
6.033;-0.0335693
6.034;-0.0350952
6.035;-0.0366211
6.036;-0.038147
6.037;-0.0393677
6.038;-0.0402832
6.039;-0.0408936
6.04;-0.0405884
6.041;-0.0405884
6.042;-0.0402832
6.043;-0.0402832
6.044;-0.0405884
6.045;-0.0415039
6.046;-0.0427246
6.047;-0.0445557
6.048;-0.0466919
6.049;-0.0494385
6.05;-0.0524902
6.051;-0.0552368
6.052;-0.0579834
6.053;-0.0604248
6.054;-0.0628662
6.055;-0.0653076
6.056;-0.0680542
6.057;-0.0714111
6.058;-0.0750732
6.059;-0.0793457
6.06;-0.0839233
6.061;-0.0888062
6.062;-0.0933838
6.063;-0.0973511
6.064;-0.100403
6.065;-0.102539
6.066;-0.103455
6.067;-0.104065
6.068;-0.104675
6.069;-0.10498
6.07;-0.105591
6.071;-0.105896
6.072;-0.105591
6.073;-0.104675
6.074;-0.102844
6.075;-0.100403
6.076;-0.0976562
6.077;-0.0939941
6.078;-0.090332
6.079;-0.0866699
6.08;-0.083313
6.081;-0.0805664
6.082;-0.0784302
6.083;-0.0769043
6.084;-0.0759888
6.085;-0.0756836
6.086;-0.0753784
6.087;-0.0753784
6.088;-0.0753784
6.089;-0.0756836
6.09;-0.0759888
6.091;-0.0762939
6.092;-0.0769043
6.093;-0.0778198
6.094;-0.0790405
6.095;-0.0808716
6.096;-0.0830078
6.097;-0.0854492
6.098;-0.0875854
6.099;-0.0891113
6.1;-0.0900269
6.101;-0.090332
6.102;-0.0900269
6.103;-0.0894165
6.104;-0.088501
6.105;-0.0875854
6.106;-0.0866699
6.107;-0.0857544
6.108;-0.0845337
6.109;-0.0830078
6.11;-0.0817871
6.111;-0.0799561
6.112;-0.0775146
6.113;-0.0744629
6.114;-0.0704956
6.115;-0.0653076
6.116;-0.0588989
6.117;-0.0509644
6.118;-0.0418091
6.119;-0.0314331
6.12;-0.0195312
6.121;-0.00610352
6.122;0.00946045
6.123;0.0271606
6.124;0.0469971
6.125;0.0686646
6.126;0.0918579
6.127;0.116272
6.128;0.142517
6.129;0.170593
6.13;0.200195
6.131;0.230408
6.132;0.26062
6.133;0.290222
6.134;0.317688
6.135;0.342407
6.136;0.364075
6.137;0.38147
6.138;0.394592
6.139;0.403137
6.14;0.40741
6.141;0.407715
6.142;0.403748
6.143;0.395203
6.144;0.382385
6.145;0.36438
6.146;0.342102
6.147;0.315247
6.148;0.284729
6.149;0.25116
6.15;0.215454
6.151;0.178528
6.152;0.140991
6.153;0.103455
6.154;0.0668335
6.155;0.0311279
6.156;-0.00335693
6.157;-0.0360107
6.158;-0.0665283
6.159;-0.0946045
6.16;-0.120239
6.161;-0.143433
6.162;-0.163879
6.163;-0.181885
6.164;-0.197144
6.165;-0.209656
6.166;-0.219727
6.167;-0.227051
6.168;-0.232239
6.169;-0.235901
6.17;-0.237427
6.171;-0.238037
6.172;-0.236816
6.173;-0.23468
6.174;-0.231323
6.175;-0.227051
6.176;-0.221863
6.177;-0.215454
6.178;-0.207825
6.179;-0.19928
6.18;-0.189514
6.181;-0.179138
6.182;-0.168457
6.183;-0.157776
6.184;-0.147095
6.185;-0.137024
6.186;-0.127258
6.187;-0.118103
6.188;-0.110168
6.189;-0.103455
6.19;-0.0973511
6.191;-0.0927734
6.192;-0.0891113
6.193;-0.0860596
6.194;-0.0842285
6.195;-0.0827026
6.196;-0.0820923
6.197;-0.0817871
6.198;-0.0814819
6.199;-0.0808716
6.2;-0.0799561
6.201;-0.0790405
6.202;-0.078125
6.203;-0.0772095
6.204;-0.0762939
6.205;-0.0750732
6.206;-0.0735474
6.207;-0.0717163
6.208;-0.0698853
6.209;-0.0674438
6.21;-0.0650024
6.211;-0.062561
6.212;-0.0604248
6.213;-0.0579834
6.214;-0.0558472
6.215;-0.0540161
6.216;-0.0524902
6.217;-0.0512695
6.218;-0.0509644
6.219;-0.0512695
6.22;-0.0521851
6.221;-0.0537109
6.222;-0.055542
6.223;-0.0576782
6.224;-0.0598145
6.225;-0.0616455
6.226;-0.0628662
6.227;-0.0637817
6.228;-0.0640869
6.229;-0.0643921
6.23;-0.0646973
6.231;-0.0650024
6.232;-0.065918
6.233;-0.0665283
6.234;-0.0674438
6.235;-0.0680542
6.236;-0.0683594
6.237;-0.0683594
6.238;-0.067749
6.239;-0.0665283
6.24;-0.0650024
6.241;-0.0634766
6.242;-0.0622559
6.243;-0.0613403
6.244;-0.0601196
6.245;-0.0592041
6.246;-0.0576782
6.247;-0.0561523
6.248;-0.0546265
6.249;-0.0534058
6.25;-0.0518799
6.251;-0.0506592
6.252;-0.0497437
6.253;-0.0488281
6.254;-0.0479126
6.255;-0.0476074
6.256;-0.0476074
6.257;-0.0479126
6.258;-0.0479126
6.259;-0.0479126
6.26;-0.0476074
6.261;-0.0473022
6.262;-0.0473022
6.263;-0.0476074
6.264;-0.0482178
6.265;-0.0494385
6.266;-0.0509644
6.267;-0.0527954
6.268;-0.0546265
6.269;-0.0561523
6.27;-0.0567627
6.271;-0.0570679
6.272;-0.0564575
6.273;-0.0552368
6.274;-0.0534058
6.275;-0.0515747
6.276;-0.0497437
6.277;-0.0479126
6.278;-0.0463867
6.279;-0.0454712
6.28;-0.0445557
6.281;-0.0439453
6.282;-0.043335
6.283;-0.0427246
6.284;-0.0415039
6.285;-0.0402832
6.286;-0.0387573
6.287;-0.0375366
6.288;-0.0366211
6.289;-0.0360107
6.29;-0.0357056
6.291;-0.0357056
6.292;-0.0360107
6.293;-0.0366211
6.294;-0.0372314
6.295;-0.0378418
6.296;-0.038147
6.297;-0.0387573
6.298;-0.0390625
6.299;-0.0393677
6.3;-0.0393677
6.301;-0.0393677
6.302;-0.0396729
6.303;-0.0396729
6.304;-0.0396729
6.305;-0.0396729
6.306;-0.0393677
6.307;-0.0387573
6.308;-0.0378418
6.309;-0.0366211
6.31;-0.0354004
6.311;-0.0338745
6.312;-0.0323486
6.313;-0.0305176
6.314;-0.0283813
6.315;-0.0259399
6.316;-0.0234985
6.317;-0.0210571
6.318;-0.0189209
6.319;-0.0167847
6.32;-0.0146484
6.321;-0.0125122
6.322;-0.0100708
6.323;-0.00732422
6.324;-0.00457764
6.325;-0.00183105
6.326;0.000610352
6.327;0.00274658
6.328;0.00457764
6.329;0.00579834
6.33;0.00640869
6.331;0.00701904
6.332;0.00732422
6.333;0.00762939
6.334;0.00823975
6.335;0.00854492
6.336;0.00915527
6.337;0.0100708
6.338;0.0109863
6.339;0.012207
6.34;0.0140381
6.341;0.0161743
6.342;0.0186157
6.343;0.0210571
6.344;0.0228882
6.345;0.0247192
6.346;0.0262451
6.347;0.0271606
6.348;0.0283813
6.349;0.0292969
6.35;0.0305176
6.351;0.0317383
6.352;0.032959
6.353;0.0344849
6.354;0.0360107
6.355;0.0372314
6.356;0.0387573
6.357;0.0402832
6.358;0.0415039
6.359;0.043335
6.36;0.045166
6.361;0.0473022
6.362;0.0491333
6.363;0.0512695
6.364;0.0534058
6.365;0.055542
6.366;0.0582886
6.367;0.0613403
6.368;0.0643921
6.369;0.0668335
6.37;0.0692749
6.371;0.0708008
6.372;0.0723267
6.373;0.0735474
6.374;0.0753784
6.375;0.0775146
6.376;0.0796509
6.377;0.0817871
6.378;0.0836182
6.379;0.0854492
6.38;0.0869751
6.381;0.088501
6.382;0.0900269
6.383;0.0915527
6.384;0.0933838
6.385;0.0952148
6.386;0.0970459
6.387;0.0991821
6.388;0.101318
6.389;0.104065
6.39;0.106812
6.391;0.109863
6.392;0.11261
6.393;0.115051
6.394;0.116882
6.395;0.118103
6.396;0.119019
6.397;0.119019
6.398;0.118713
6.399;0.118103
6.4;0.117493
6.401;0.116882
6.402;0.116272
6.403;0.115356
6.404;0.114136
6.405;0.11261
6.406;0.110779
6.407;0.108643
6.408;0.106506
6.409;0.10437
6.41;0.102539
6.411;0.100708
6.412;0.0994873
6.413;0.0985718
6.414;0.0982666
6.415;0.0985718
6.416;0.0994873
6.417;0.100098
6.418;0.101013
6.419;0.101318
6.42;0.101318
6.421;0.100708
6.422;0.100098
6.423;0.0991821
6.424;0.0979614
6.425;0.0967407
6.426;0.09552
6.427;0.0939941
6.428;0.0924683
6.429;0.0906372
6.43;0.0881958
6.431;0.0854492
6.432;0.0823975
6.433;0.0793457
6.434;0.0759888
6.435;0.0723267
6.436;0.0686646
6.437;0.0650024
6.438;0.0616455
6.439;0.0585938
6.44;0.0561523
6.441;0.0537109
6.442;0.0515747
6.443;0.0497437
6.444;0.0473022
6.445;0.0448608
6.446;0.0424194
6.447;0.0396729
6.448;0.0369263
6.449;0.0344849
6.45;0.0320435
6.451;0.0296021
6.452;0.0268555
6.453;0.0241089
6.454;0.0210571
6.455;0.0180054
6.456;0.0146484
6.457;0.0109863
6.458;0.00732422
6.459;0.00305176
6.46;-0.0012207
6.461;-0.00579834
6.462;-0.0106812
6.463;-0.0149536
6.464;-0.0192261
6.465;-0.0231934
6.466;-0.0265503
6.467;-0.0296021
6.468;-0.0323486
6.469;-0.0350952
6.47;-0.0375366
6.471;-0.0402832
6.472;-0.0427246
6.473;-0.0454712
6.474;-0.0476074
6.475;-0.0497437
6.476;-0.0512695
6.477;-0.0521851
6.478;-0.0524902
6.479;-0.0524902
6.48;-0.0521851
6.481;-0.0521851
6.482;-0.0521851
6.483;-0.0527954
6.484;-0.0534058
6.485;-0.0543213
6.486;-0.055542
6.487;-0.0564575
6.488;-0.057373
6.489;-0.0576782
6.49;-0.0576782
6.491;-0.0570679
6.492;-0.0564575
6.493;-0.055542
6.494;-0.0549316
6.495;-0.0546265
6.496;-0.0549316
6.497;-0.0552368
6.498;-0.0561523
6.499;-0.0567627
6.5;-0.0576782
6.501;-0.0585938
6.502;-0.0592041
6.503;-0.0601196
6.504;-0.0610352
6.505;-0.0622559
6.506;-0.0628662
6.507;-0.0631714
6.508;-0.0631714
6.509;-0.062561
6.51;-0.0613403
6.511;-0.0601196
6.512;-0.0585938
6.513;-0.0570679
6.514;-0.0558472
6.515;-0.0546265
6.516;-0.0531006
6.517;-0.0515747
6.518;-0.0497437
6.519;-0.0476074
6.52;-0.0457764
6.521;-0.0442505
6.522;-0.0430298
6.523;-0.0418091
6.524;-0.0402832
6.525;-0.0387573
6.526;-0.0372314
6.527;-0.0360107
6.528;-0.0350952
6.529;-0.0344849
6.53;-0.0344849
6.531;-0.03479
6.532;-0.0357056
6.533;-0.0366211
6.534;-0.0378418
6.535;-0.0390625
6.536;-0.0402832
6.537;-0.0415039
6.538;-0.0424194
6.539;-0.043335
6.54;-0.0442505
6.541;-0.0454712
6.542;-0.0469971
6.543;-0.0485229
6.544;-0.0497437
6.545;-0.0509644
6.546;-0.0518799
6.547;-0.0521851
6.548;-0.0521851
6.549;-0.0521851
6.55;-0.0518799
6.551;-0.0515747
6.552;-0.0509644
6.553;-0.050354
6.554;-0.0497437
6.555;-0.0491333
6.556;-0.0488281
6.557;-0.0485229
6.558;-0.0482178
6.559;-0.0476074
6.56;-0.0469971
6.561;-0.0463867
6.562;-0.045166
6.563;-0.0439453
6.564;-0.0424194
6.565;-0.0415039
6.566;-0.0405884
6.567;-0.0402832
6.568;-0.039978
6.569;-0.039978
6.57;-0.039978
6.571;-0.039978
6.572;-0.0405884
6.573;-0.0411987
6.574;-0.0424194
6.575;-0.0436401
6.576;-0.045166
6.577;-0.0469971
6.578;-0.0488281
6.579;-0.0506592
6.58;-0.0521851
6.581;-0.0531006
6.582;-0.0537109
6.583;-0.0537109
6.584;-0.0537109
6.585;-0.0537109
6.586;-0.0537109
6.587;-0.0540161
6.588;-0.0540161
6.589;-0.0537109
6.59;-0.0531006
6.591;-0.0518799
6.592;-0.0506592
6.593;-0.0491333
6.594;-0.0476074
6.595;-0.0457764
6.596;-0.0442505
6.597;-0.0430298
6.598;-0.0415039
6.599;-0.0408936
6.6;-0.0405884
6.601;-0.0405884
6.602;-0.0405884
6.603;-0.0405884
6.604;-0.0405884
6.605;-0.0402832
6.606;-0.0396729
6.607;-0.0393677
6.608;-0.0396729
6.609;-0.039978
6.61;-0.0408936
6.611;-0.0418091
6.612;-0.0430298
6.613;-0.0436401
6.614;-0.0445557
6.615;-0.0448608
6.616;-0.045166
6.617;-0.045166
6.618;-0.045166
6.619;-0.0448608
6.62;-0.0448608
6.621;-0.045166
6.622;-0.0457764
6.623;-0.0463867
6.624;-0.0473022
6.625;-0.0485229
6.626;-0.0494385
6.627;-0.0506592
6.628;-0.0518799
6.629;-0.0531006
6.63;-0.0543213
6.631;-0.055542
6.632;-0.0567627
6.633;-0.0579834
6.634;-0.0595093
6.635;-0.06073
6.636;-0.0616455
6.637;-0.0622559
6.638;-0.062561
6.639;-0.0622559
6.64;-0.0616455
6.641;-0.06073
6.642;-0.0604248
6.643;-0.0601196
6.644;-0.0601196
6.645;-0.0601196
6.646;-0.0601196
6.647;-0.0601196
6.648;-0.0598145
6.649;-0.0592041
6.65;-0.0592041
6.651;-0.0592041
6.652;-0.0592041
6.653;-0.0595093
6.654;-0.0595093
6.655;-0.0598145
6.656;-0.0601196
6.657;-0.0601196
6.658;-0.0604248
6.659;-0.06073
6.66;-0.06073
6.661;-0.06073
6.662;-0.06073
6.663;-0.06073
6.664;-0.06073
6.665;-0.06073
6.666;-0.06073
6.667;-0.06073
6.668;-0.0604248
6.669;-0.0595093
6.67;-0.0582886
6.671;-0.0570679
6.672;-0.0558472
6.673;-0.0543213
6.674;-0.0527954
6.675;-0.0518799
6.676;-0.0509644
6.677;-0.050354
6.678;-0.0494385
6.679;-0.0485229
6.68;-0.0469971
6.681;-0.0457764
6.682;-0.0445557
6.683;-0.0436401
6.684;-0.043335
6.685;-0.0430298
6.686;-0.0427246
6.687;-0.0424194
6.688;-0.0427246
6.689;-0.0436401
6.69;-0.0448608
6.691;-0.0460815
6.692;-0.0476074
6.693;-0.0491333
6.694;-0.0506592
6.695;-0.0521851
6.696;-0.0537109
6.697;-0.055542
6.698;-0.0570679
6.699;-0.0588989
6.7;-0.0601196
6.701;-0.0610352
6.702;-0.0619507
6.703;-0.0628662
6.704;-0.0634766
6.705;-0.0640869
6.706;-0.0646973
6.707;-0.0646973
6.708;-0.0643921
6.709;-0.0634766
6.71;-0.0628662
6.711;-0.0619507
6.712;-0.0613403
6.713;-0.06073
6.714;-0.0604248
6.715;-0.0601196
6.716;-0.0598145
6.717;-0.0595093
6.718;-0.0588989
6.719;-0.0585938
6.72;-0.0582886
6.721;-0.0582886
6.722;-0.0579834
6.723;-0.0576782
6.724;-0.0570679
6.725;-0.0561523
6.726;-0.055542
6.727;-0.0549316
6.728;-0.0546265
6.729;-0.0546265
6.73;-0.0549316
6.731;-0.0549316
6.732;-0.0549316
6.733;-0.0543213
6.734;-0.0531006
6.735;-0.0515747
6.736;-0.0497437
6.737;-0.0479126
6.738;-0.0463867
6.739;-0.0448608
6.74;-0.0439453
6.741;-0.043335
6.742;-0.0427246
6.743;-0.0421143
6.744;-0.0411987
6.745;-0.0402832
6.746;-0.0393677
6.747;-0.038147
6.748;-0.0372314
6.749;-0.0366211
6.75;-0.0366211
6.751;-0.0366211
6.752;-0.0363159
6.753;-0.0360107
6.754;-0.0350952
6.755;-0.0338745
6.756;-0.0326538
6.757;-0.0311279
6.758;-0.0299072
6.759;-0.0289917
6.76;-0.027771
6.761;-0.0268555
6.762;-0.0253296
6.763;-0.0238037
6.764;-0.0219727
6.765;-0.0198364
6.766;-0.0180054
6.767;-0.0158691
6.768;-0.0140381
6.769;-0.012207
6.77;-0.0106812
6.771;-0.00915527
6.772;-0.00793457
6.773;-0.00671387
6.774;-0.00610352
6.775;-0.00549316
6.776;-0.00549316
6.777;-0.00549316
6.778;-0.00579834
6.779;-0.00610352
6.78;-0.00671387
6.781;-0.00732422
6.782;-0.00762939
6.783;-0.00701904
6.784;-0.00640869
6.785;-0.00488281
6.786;-0.00335693
6.787;-0.0012207
6.788;0.000915527
6.789;0.00305176
6.79;0.00549316
6.791;0.00823975
6.792;0.0106812
6.793;0.0134277
6.794;0.0164795
6.795;0.0195312
6.796;0.022583
6.797;0.0256348
6.798;0.0283813
6.799;0.0308228
6.8;0.0332642
6.801;0.0354004
6.802;0.0372314
6.803;0.0387573
6.804;0.039978
6.805;0.0405884
6.806;0.0402832
6.807;0.0396729
6.808;0.038147
6.809;0.0363159
6.81;0.0338745
6.811;0.0311279
6.812;0.0283813
6.813;0.0250244
6.814;0.0216675
6.815;0.0180054
6.816;0.0146484
6.817;0.0109863
6.818;0.00732422
6.819;0.00396729
6.82;0
6.821;-0.00366211
6.822;-0.00762939
6.823;-0.0115967
6.824;-0.015564
6.825;-0.0192261
6.826;-0.0228882
6.827;-0.0265503
6.828;-0.0299072
6.829;-0.0332642
6.83;-0.0363159
6.831;-0.0390625
6.832;-0.0415039
6.833;-0.0436401
6.834;-0.0454712
6.835;-0.0473022
6.836;-0.0488281
6.837;-0.050354
6.838;-0.0521851
6.839;-0.0540161
6.84;-0.0561523
6.841;-0.0582886
6.842;-0.06073
6.843;-0.0631714
6.844;-0.065918
6.845;-0.0686646
6.846;-0.0717163
6.847;-0.0744629
6.848;-0.0775146
6.849;-0.0808716
6.85;-0.0842285
6.851;-0.0869751
6.852;-0.0894165
6.853;-0.0906372
6.854;-0.0915527
6.855;-0.0915527
6.856;-0.0909424
6.857;-0.0900269
6.858;-0.0888062
6.859;-0.0872803
6.86;-0.0860596
6.861;-0.0848389
6.862;-0.0836182
6.863;-0.0823975
6.864;-0.0805664
6.865;-0.0784302
6.866;-0.0762939
6.867;-0.0738525
6.868;-0.0720215
6.869;-0.0704956
6.87;-0.0695801
6.871;-0.0695801
6.872;-0.0701904
6.873;-0.071106
6.874;-0.0723267
6.875;-0.0735474
6.876;-0.0747681
6.877;-0.0759888
6.878;-0.0772095
6.879;-0.0787354
6.88;-0.0805664
6.881;-0.0817871
6.882;-0.0830078
6.883;-0.0839233
6.884;-0.0842285
6.885;-0.0845337
6.886;-0.0845337
6.887;-0.0839233
6.888;-0.083313
6.889;-0.0823975
6.89;-0.0811768
6.891;-0.0802612
6.892;-0.0796509
6.893;-0.0790405
6.894;-0.0790405
6.895;-0.0796509
6.896;-0.0805664
6.897;-0.0814819
6.898;-0.0823975
6.899;-0.0830078
6.9;-0.083313
6.901;-0.083313
6.902;-0.0830078
6.903;-0.0823975
6.904;-0.0811768
6.905;-0.0790405
6.906;-0.0762939
6.907;-0.0723267
6.908;-0.0671387
6.909;-0.0601196
6.91;-0.0518799
6.911;-0.0421143
6.912;-0.0305176
6.913;-0.0167847
6.914;-0.000915527
6.915;0.017395
6.916;0.0375366
6.917;0.0595093
6.918;0.0823975
6.919;0.106812
6.92;0.132141
6.921;0.158386
6.922;0.185547
6.923;0.213013
6.924;0.240173
6.925;0.266724
6.926;0.291138
6.927;0.313416
6.928;0.332031
6.929;0.346375
6.93;0.35614
6.931;0.361023
6.932;0.361023
6.933;0.355835
6.934;0.346069
6.935;0.331726
6.936;0.312805
6.937;0.289612
6.938;0.262451
6.939;0.231628
6.94;0.197754
6.941;0.160828
6.942;0.12207
6.943;0.0823975
6.944;0.0421143
6.945;0.00244141
6.946;-0.0363159
6.947;-0.072937
6.948;-0.107727
6.949;-0.139771
6.95;-0.169373
6.951;-0.195923
6.952;-0.219116
6.953;-0.238953
6.954;-0.255432
6.955;-0.26886
6.956;-0.278931
6.957;-0.28656
6.958;-0.292053
6.959;-0.295105
6.96;-0.296326
6.961;-0.295715
6.962;-0.293884
6.963;-0.290833
6.964;-0.28656
6.965;-0.281067
6.966;-0.274658
6.967;-0.267029
6.968;-0.258179
6.969;-0.248413
6.97;-0.238037
6.971;-0.226746
6.972;-0.215149
6.973;-0.202942
6.974;-0.190735
6.975;-0.178528
6.976;-0.166626
6.977;-0.154724
6.978;-0.143433
6.979;-0.132751
6.98;-0.122375
6.981;-0.11322
6.982;-0.105286
6.983;-0.0985718
6.984;-0.0933838
6.985;-0.0894165
6.986;-0.0869751
6.987;-0.0857544
6.988;-0.085144
6.989;-0.0854492
6.99;-0.0857544
6.991;-0.0866699
6.992;-0.0872803
6.993;-0.0878906
