0;0.0305176
0.001;0.0323486
0.002;0.0341797
0.003;0.0357056
0.004;0.0375366
0.005;0.0393677
0.006;0.0408936
0.007;0.0427246
0.008;0.0445557
0.009;0.0460815
0.01;0.0479126
0.011;0.0494385
0.012;0.0506592
0.013;0.0518799
0.014;0.0527954
0.015;0.0534058
0.016;0.0540161
0.017;0.0546265
0.018;0.0549316
0.019;0.0552368
0.02;0.0552368
0.021;0.0552368
0.022;0.0552368
0.023;0.055542
0.024;0.0558472
0.025;0.0561523
0.026;0.0567627
0.027;0.0570679
0.028;0.0570679
0.029;0.057373
0.03;0.0570679
0.031;0.0567627
0.032;0.0567627
0.033;0.0567627
0.034;0.0570679
0.035;0.0579834
0.036;0.0592041
0.037;0.0610352
0.038;0.062561
0.039;0.0643921
0.04;0.065918
0.041;0.0674438
0.042;0.0689697
0.043;0.0701904
0.044;0.0717163
0.045;0.072937
0.046;0.0741577
0.047;0.0756836
0.048;0.0765991
0.049;0.0775146
0.05;0.0778198
0.051;0.0778198
0.052;0.0772095
0.053;0.0759888
0.054;0.0747681
0.055;0.0732422
0.056;0.0720215
0.057;0.0708008
0.058;0.0698853
0.059;0.0686646
0.06;0.067749
0.061;0.0662231
0.062;0.0646973
0.063;0.062561
0.064;0.0604248
0.065;0.0582886
0.066;0.0564575
0.067;0.0549316
0.068;0.0537109
0.069;0.0527954
0.07;0.0521851
0.071;0.0512695
0.072;0.050354
0.073;0.0488281
0.074;0.0469971
0.075;0.0445557
0.076;0.0421143
0.077;0.0393677
0.078;0.0363159
0.079;0.0335693
0.08;0.0302124
0.081;0.0268555
0.082;0.0234985
0.083;0.0198364
0.084;0.0164795
0.085;0.0128174
0.086;0.00915527
0.087;0.00549316
0.088;0.00183105
0.089;-0.00183105
0.09;-0.00549316
0.091;-0.00915527
0.092;-0.012207
0.093;-0.0152588
0.094;-0.0177002
0.095;-0.0198364
0.096;-0.0213623
0.097;-0.0228882
0.098;-0.0244141
0.099;-0.0259399
0.1;-0.0274658
0.101;-0.0289917
0.102;-0.0305176
0.103;-0.0320435
0.104;-0.0335693
0.105;-0.0350952
0.106;-0.0366211
0.107;-0.0384521
0.108;-0.039978
0.109;-0.0418091
0.11;-0.0436401
0.111;-0.0457764
0.112;-0.0476074
0.113;-0.0497437
0.114;-0.0521851
0.115;-0.0546265
0.116;-0.057373
0.117;-0.0601196
0.118;-0.062561
0.119;-0.0650024
0.12;-0.0668335
0.121;-0.0683594
0.122;-0.0698853
0.123;-0.0708008
0.124;-0.0720215
0.125;-0.0732422
0.126;-0.0744629
0.127;-0.0753784
0.128;-0.0765991
0.129;-0.0772095
0.13;-0.0778198
0.131;-0.0778198
0.132;-0.0778198
0.133;-0.0778198
0.134;-0.0775146
0.135;-0.0772095
0.136;-0.0765991
0.137;-0.0759888
0.138;-0.0750732
0.139;-0.0738525
0.14;-0.0726318
0.141;-0.0714111
0.142;-0.0701904
0.143;-0.0689697
0.144;-0.0683594
0.145;-0.0680542
0.146;-0.0683594
0.147;-0.0689697
0.148;-0.0698853
0.149;-0.0708008
0.15;-0.0720215
0.151;-0.072937
0.152;-0.0744629
0.153;-0.0756836
0.154;-0.0769043
0.155;-0.078125
0.156;-0.0793457
0.157;-0.0805664
0.158;-0.0817871
0.159;-0.083313
0.16;-0.0845337
0.161;-0.0860596
0.162;-0.0872803
0.163;-0.088501
0.164;-0.0894165
0.165;-0.0900269
0.166;-0.0909424
0.167;-0.0912476
0.168;-0.0912476
0.169;-0.0906372
0.17;-0.0900269
0.171;-0.0894165
0.172;-0.0888062
0.173;-0.0878906
0.174;-0.0872803
0.175;-0.0869751
0.176;-0.0866699
0.177;-0.0863647
0.178;-0.0863647
0.179;-0.0863647
0.18;-0.0866699
0.181;-0.0866699
0.182;-0.0869751
0.183;-0.0869751
0.184;-0.0866699
0.185;-0.0863647
0.186;-0.0860596
0.187;-0.085144
0.188;-0.0845337
0.189;-0.0836182
0.19;-0.0827026
0.191;-0.0817871
0.192;-0.0811768
0.193;-0.0802612
0.194;-0.0793457
0.195;-0.0784302
0.196;-0.0775146
0.197;-0.0765991
0.198;-0.0753784
0.199;-0.0744629
0.2;-0.0732422
0.201;-0.0717163
0.202;-0.0701904
0.203;-0.0686646
0.204;-0.0671387
0.205;-0.0662231
0.206;-0.0656128
0.207;-0.0650024
0.208;-0.0650024
0.209;-0.0646973
0.21;-0.0646973
0.211;-0.0643921
0.212;-0.0637817
0.213;-0.0631714
0.214;-0.062561
0.215;-0.0619507
0.216;-0.0616455
0.217;-0.0610352
0.218;-0.06073
0.219;-0.0604248
0.22;-0.0598145
0.221;-0.0592041
0.222;-0.0585938
0.223;-0.057373
0.224;-0.0561523
0.225;-0.0549316
0.226;-0.0534058
0.227;-0.0521851
0.228;-0.0512695
0.229;-0.050354
0.23;-0.0494385
0.231;-0.0488281
0.232;-0.0479126
0.233;-0.0469971
0.234;-0.0457764
0.235;-0.0448608
0.236;-0.0439453
0.237;-0.0430298
0.238;-0.0421143
0.239;-0.0411987
0.24;-0.0405884
0.241;-0.0396729
0.242;-0.0393677
0.243;-0.0393677
0.244;-0.0393677
0.245;-0.0393677
0.246;-0.0390625
0.247;-0.038147
0.248;-0.0369263
0.249;-0.0354004
0.25;-0.0341797
0.251;-0.032959
0.252;-0.0320435
0.253;-0.0317383
0.254;-0.0314331
0.255;-0.0314331
0.256;-0.0320435
0.257;-0.0323486
0.258;-0.032959
0.259;-0.0335693
0.26;-0.0338745
0.261;-0.0341797
0.262;-0.0344849
0.263;-0.0350952
0.264;-0.0357056
0.265;-0.0366211
0.266;-0.0378418
0.267;-0.0393677
0.268;-0.0408936
0.269;-0.0427246
0.27;-0.0442505
0.271;-0.0454712
0.272;-0.0460815
0.273;-0.0466919
0.274;-0.0469971
0.275;-0.0469971
0.276;-0.0466919
0.277;-0.0460815
0.278;-0.0454712
0.279;-0.0445557
0.28;-0.0436401
0.281;-0.0427246
0.282;-0.0421143
0.283;-0.0411987
0.284;-0.0408936
0.285;-0.0402832
0.286;-0.0402832
0.287;-0.039978
0.288;-0.0393677
0.289;-0.0387573
0.29;-0.0378418
0.291;-0.0375366
0.292;-0.0372314
0.293;-0.0375366
0.294;-0.0375366
0.295;-0.0378418
0.296;-0.038147
0.297;-0.0384521
0.298;-0.0387573
0.299;-0.0396729
0.3;-0.0402832
0.301;-0.0411987
0.302;-0.0415039
0.303;-0.0415039
0.304;-0.0415039
0.305;-0.0408936
0.306;-0.039978
0.307;-0.0387573
0.308;-0.0375366
0.309;-0.0366211
0.31;-0.0360107
0.311;-0.0357056
0.312;-0.0357056
0.313;-0.0357056
0.314;-0.0363159
0.315;-0.0372314
0.316;-0.0384521
0.317;-0.0396729
0.318;-0.0405884
0.319;-0.0418091
0.32;-0.0430298
0.321;-0.0439453
0.322;-0.0448608
0.323;-0.0460815
0.324;-0.0469971
0.325;-0.0479126
0.326;-0.0485229
0.327;-0.0491333
0.328;-0.0497437
0.329;-0.0497437
0.33;-0.0494385
0.331;-0.0491333
0.332;-0.0491333
0.333;-0.0488281
0.334;-0.0491333
0.335;-0.0491333
0.336;-0.0494385
0.337;-0.0491333
0.338;-0.0488281
0.339;-0.0482178
0.34;-0.0473022
0.341;-0.0463867
0.342;-0.0457764
0.343;-0.045166
0.344;-0.045166
0.345;-0.0457764
0.346;-0.0466919
0.347;-0.0479126
0.348;-0.0494385
0.349;-0.0509644
0.35;-0.0527954
0.351;-0.0549316
0.352;-0.0570679
0.353;-0.0592041
0.354;-0.0610352
0.355;-0.0622559
0.356;-0.0634766
0.357;-0.0646973
0.358;-0.0656128
0.359;-0.0665283
0.36;-0.0671387
0.361;-0.0674438
0.362;-0.0674438
0.363;-0.0671387
0.364;-0.0665283
0.365;-0.0656128
0.366;-0.0643921
0.367;-0.0628662
0.368;-0.0610352
0.369;-0.0588989
0.37;-0.0564575
0.371;-0.0537109
0.372;-0.0509644
0.373;-0.0485229
0.374;-0.0457764
0.375;-0.0430298
0.376;-0.0402832
0.377;-0.0375366
0.378;-0.0350952
0.379;-0.032959
0.38;-0.0314331
0.381;-0.0299072
0.382;-0.0289917
0.383;-0.0283813
0.384;-0.0280762
0.385;-0.0283813
0.386;-0.0289917
0.387;-0.0296021
0.388;-0.0305176
0.389;-0.0317383
0.39;-0.0326538
0.391;-0.0332642
0.392;-0.0338745
0.393;-0.0341797
0.394;-0.0344849
0.395;-0.0344849
0.396;-0.03479
0.397;-0.0354004
0.398;-0.0363159
0.399;-0.0372314
0.4;-0.038147
0.401;-0.0387573
0.402;-0.0393677
0.403;-0.039978
0.404;-0.0402832
0.405;-0.0405884
0.406;-0.0408936
0.407;-0.0411987
0.408;-0.0411987
0.409;-0.0415039
0.41;-0.0415039
0.411;-0.0415039
0.412;-0.0411987
0.413;-0.0411987
0.414;-0.0411987
0.415;-0.0411987
0.416;-0.0411987
0.417;-0.0411987
0.418;-0.0415039
0.419;-0.0421143
0.42;-0.0430298
0.421;-0.0436401
0.422;-0.0442505
0.423;-0.0445557
0.424;-0.0454712
0.425;-0.0463867
0.426;-0.0473022
0.427;-0.0485229
0.428;-0.0494385
0.429;-0.0500488
0.43;-0.0500488
0.431;-0.0497437
0.432;-0.0491333
0.433;-0.0488281
0.434;-0.0485229
0.435;-0.0485229
0.436;-0.0482178
0.437;-0.0476074
0.438;-0.0466919
0.439;-0.0454712
0.44;-0.0439453
0.441;-0.0421143
0.442;-0.039978
0.443;-0.038147
0.444;-0.0363159
0.445;-0.0350952
0.446;-0.0338745
0.447;-0.0326538
0.448;-0.0317383
0.449;-0.0305176
0.45;-0.0299072
0.451;-0.0289917
0.452;-0.0286865
0.453;-0.0280762
0.454;-0.027771
0.455;-0.027771
0.456;-0.0274658
0.457;-0.0274658
0.458;-0.0271606
0.459;-0.0271606
0.46;-0.0265503
0.461;-0.0262451
0.462;-0.0256348
0.463;-0.0250244
0.464;-0.0244141
0.465;-0.0244141
0.466;-0.0241089
0.467;-0.0238037
0.468;-0.0234985
0.469;-0.022583
0.47;-0.0219727
0.471;-0.0210571
0.472;-0.020752
0.473;-0.0201416
0.474;-0.0201416
0.475;-0.0201416
0.476;-0.0201416
0.477;-0.0201416
0.478;-0.0198364
0.479;-0.0192261
0.48;-0.0186157
0.481;-0.0177002
0.482;-0.0167847
0.483;-0.015564
0.484;-0.0146484
0.485;-0.0134277
0.486;-0.0125122
0.487;-0.0112915
0.488;-0.010376
0.489;-0.00946045
0.49;-0.0088501
0.491;-0.00793457
0.492;-0.00732422
0.493;-0.00671387
0.494;-0.00610352
0.495;-0.00518799
0.496;-0.00457764
0.497;-0.00396729
0.498;-0.00335693
0.499;-0.00305176
0.5;-0.00305176
0.501;-0.00274658
0.502;-0.00213623
0.503;-0.00183105
0.504;-0.000915527
0.505;-0.000305176
0.506;0.000305176
0.507;0.000915527
0.508;0.00183105
0.509;0.00274658
0.51;0.00366211
0.511;0.00427246
0.512;0.00488281
0.513;0.00549316
0.514;0.00610352
0.515;0.00671387
0.516;0.00732422
0.517;0.00762939
0.518;0.00793457
0.519;0.00793457
0.52;0.00762939
0.521;0.00732422
0.522;0.00671387
0.523;0.00579834
0.524;0.00518799
0.525;0.00427246
0.526;0.00335693
0.527;0.00213623
0.528;0.000915527
0.529;-0.000305176
0.53;-0.00152588
0.531;-0.00274658
0.532;-0.00396729
0.533;-0.00518799
0.534;-0.00671387
0.535;-0.00793457
0.536;-0.00946045
0.537;-0.0109863
0.538;-0.0125122
0.539;-0.0140381
0.54;-0.015564
0.541;-0.0164795
0.542;-0.0170898
0.543;-0.0177002
0.544;-0.0186157
0.545;-0.0192261
0.546;-0.0201416
0.547;-0.0213623
0.548;-0.0219727
0.549;-0.022583
0.55;-0.0228882
0.551;-0.0234985
0.552;-0.0241089
0.553;-0.0250244
0.554;-0.0259399
0.555;-0.0271606
0.556;-0.0283813
0.557;-0.0292969
0.558;-0.0302124
0.559;-0.0311279
0.56;-0.0317383
0.561;-0.0323486
0.562;-0.0323486
0.563;-0.0326538
0.564;-0.032959
0.565;-0.0335693
0.566;-0.03479
0.567;-0.0363159
0.568;-0.0384521
0.569;-0.0402832
0.57;-0.0418091
0.571;-0.043335
0.572;-0.0442505
0.573;-0.0448608
0.574;-0.0454712
0.575;-0.0460815
0.576;-0.0466919
0.577;-0.0476074
0.578;-0.0482178
0.579;-0.0491333
0.58;-0.0497437
0.581;-0.0497437
0.582;-0.0497437
0.583;-0.0491333
0.584;-0.0485229
0.585;-0.0479126
0.586;-0.0476074
0.587;-0.0469971
0.588;-0.0463867
0.589;-0.0454712
0.59;-0.0445557
0.591;-0.0436401
0.592;-0.0427246
0.593;-0.0418091
0.594;-0.0408936
0.595;-0.0402832
0.596;-0.0393677
0.597;-0.0384521
0.598;-0.0375366
0.599;-0.0366211
0.6;-0.0363159
0.601;-0.0357056
0.602;-0.0354004
0.603;-0.03479
0.604;-0.0344849
0.605;-0.0338745
0.606;-0.0335693
0.607;-0.032959
0.608;-0.0323486
0.609;-0.0314331
0.61;-0.0305176
0.611;-0.0292969
0.612;-0.0280762
0.613;-0.0268555
0.614;-0.0259399
0.615;-0.0253296
0.616;-0.0247192
0.617;-0.0244141
0.618;-0.0241089
0.619;-0.0241089
0.62;-0.0247192
0.621;-0.0256348
0.622;-0.0268555
0.623;-0.0280762
0.624;-0.0292969
0.625;-0.0305176
0.626;-0.0314331
0.627;-0.0323486
0.628;-0.0332642
0.629;-0.0335693
0.63;-0.0338745
0.631;-0.0341797
0.632;-0.0341797
0.633;-0.0341797
0.634;-0.0341797
0.635;-0.0332642
0.636;-0.0323486
0.637;-0.0308228
0.638;-0.0292969
0.639;-0.027771
0.64;-0.0265503
0.641;-0.0253296
0.642;-0.0241089
0.643;-0.0228882
0.644;-0.0219727
0.645;-0.020752
0.646;-0.0198364
0.647;-0.0189209
0.648;-0.0183105
0.649;-0.017395
0.65;-0.0167847
0.651;-0.0161743
0.652;-0.0158691
0.653;-0.015564
0.654;-0.015564
0.655;-0.0152588
0.656;-0.0152588
0.657;-0.015564
0.658;-0.015564
0.659;-0.015564
0.66;-0.015564
0.661;-0.0152588
0.662;-0.0146484
0.663;-0.0140381
0.664;-0.0131226
0.665;-0.012207
0.666;-0.0115967
0.667;-0.0106812
0.668;-0.010376
0.669;-0.00976562
0.67;-0.00915527
0.671;-0.00823975
0.672;-0.00732422
0.673;-0.00549316
0.674;-0.00274658
0.675;0.000915527
0.676;0.00518799
0.677;0.010376
0.678;0.0167847
0.679;0.0238037
0.68;0.0320435
0.681;0.0411987
0.682;0.0512695
0.683;0.0622559
0.684;0.0747681
0.685;0.088501
0.686;0.103149
0.687;0.119324
0.688;0.136414
0.689;0.154724
0.69;0.17395
0.691;0.194092
0.692;0.214844
0.693;0.236206
0.694;0.257263
0.695;0.277405
0.696;0.296631
0.697;0.313416
0.698;0.327759
0.699;0.33844
0.7;0.345764
0.701;0.348511
0.702;0.34729
0.703;0.341492
0.704;0.331726
0.705;0.317383
0.706;0.299377
0.707;0.278015
0.708;0.252991
0.709;0.224915
0.71;0.193787
0.711;0.159912
0.712;0.124512
0.713;0.0875854
0.714;0.0509644
0.715;0.0149536
0.716;-0.0192261
0.717;-0.0515747
0.718;-0.0805664
0.719;-0.106201
0.72;-0.128479
0.721;-0.14679
0.722;-0.160828
0.723;-0.171509
0.724;-0.178223
0.725;-0.18158
0.726;-0.18219
0.727;-0.180359
0.728;-0.175781
0.729;-0.169067
0.73;-0.160522
0.731;-0.150452
0.732;-0.140076
0.733;-0.129089
0.734;-0.118408
0.735;-0.108032
0.736;-0.0985718
0.737;-0.0897217
0.738;-0.0820923
0.739;-0.0753784
0.74;-0.0695801
0.741;-0.0643921
0.742;-0.0598145
0.743;-0.0558472
0.744;-0.0518799
0.745;-0.0485229
0.746;-0.045166
0.747;-0.0421143
0.748;-0.0390625
0.749;-0.0360107
0.75;-0.032959
0.751;-0.0299072
0.752;-0.0268555
0.753;-0.0238037
0.754;-0.020752
0.755;-0.0183105
0.756;-0.0161743
0.757;-0.0143433
0.758;-0.0131226
0.759;-0.0119019
0.76;-0.0109863
0.761;-0.0100708
0.762;-0.00976562
0.763;-0.00946045
0.764;-0.0100708
0.765;-0.0106812
0.766;-0.0115967
0.767;-0.012207
0.768;-0.0128174
0.769;-0.0134277
0.77;-0.0140381
0.771;-0.0149536
0.772;-0.0158691
0.773;-0.0167847
0.774;-0.0180054
0.775;-0.0192261
0.776;-0.0204468
0.777;-0.0213623
0.778;-0.0219727
0.779;-0.0219727
0.78;-0.0213623
0.781;-0.0198364
0.782;-0.0183105
0.783;-0.0170898
0.784;-0.0158691
0.785;-0.0149536
0.786;-0.0140381
0.787;-0.0131226
0.788;-0.012207
0.789;-0.0109863
0.79;-0.010376
0.791;-0.00976562
0.792;-0.00976562
0.793;-0.0100708
0.794;-0.0106812
0.795;-0.0109863
0.796;-0.0115967
0.797;-0.0119019
0.798;-0.0119019
0.799;-0.012207
0.8;-0.0125122
0.801;-0.0131226
0.802;-0.0143433
0.803;-0.015564
0.804;-0.0170898
0.805;-0.0186157
0.806;-0.0201416
0.807;-0.0213623
0.808;-0.0219727
0.809;-0.0219727
0.81;-0.0219727
0.811;-0.0216675
0.812;-0.0210571
0.813;-0.0204468
0.814;-0.0195312
0.815;-0.0189209
0.816;-0.0183105
0.817;-0.017395
0.818;-0.0167847
0.819;-0.0158691
0.82;-0.0146484
0.821;-0.0134277
0.822;-0.012207
0.823;-0.0106812
0.824;-0.00915527
0.825;-0.00793457
0.826;-0.00701904
0.827;-0.00640869
0.828;-0.00610352
0.829;-0.00579834
0.83;-0.00549316
0.831;-0.00549316
0.832;-0.00549316
0.833;-0.00549316
0.834;-0.00579834
0.835;-0.00579834
0.836;-0.00579834
0.837;-0.00610352
0.838;-0.00610352
0.839;-0.00579834
0.84;-0.00579834
0.841;-0.00549316
0.842;-0.00518799
0.843;-0.00457764
0.844;-0.00335693
0.845;-0.00213623
0.846;-0.000610352
0.847;0.000915527
0.848;0.00274658
0.849;0.00427246
0.85;0.00579834
0.851;0.00671387
0.852;0.00762939
0.853;0.0088501
0.854;0.0100708
0.855;0.0115967
0.856;0.0131226
0.857;0.0143433
0.858;0.015564
0.859;0.0161743
0.86;0.0164795
0.861;0.0164795
0.862;0.0167847
0.863;0.017395
0.864;0.0183105
0.865;0.0192261
0.866;0.0201416
0.867;0.0210571
0.868;0.0213623
0.869;0.0216675
0.87;0.0219727
0.871;0.0219727
0.872;0.0219727
0.873;0.0219727
0.874;0.0219727
0.875;0.0222778
0.876;0.0222778
0.877;0.0219727
0.878;0.0216675
0.879;0.0213623
0.88;0.0210571
0.881;0.0210571
0.882;0.020752
0.883;0.0201416
0.884;0.0198364
0.885;0.0192261
0.886;0.0189209
0.887;0.0192261
0.888;0.0198364
0.889;0.0210571
0.89;0.0228882
0.891;0.0247192
0.892;0.0268555
0.893;0.0286865
0.894;0.0308228
0.895;0.0332642
0.896;0.0360107
0.897;0.0390625
0.898;0.0421143
0.899;0.045166
0.9;0.0482178
0.901;0.0512695
0.902;0.0543213
0.903;0.0576782
0.904;0.06073
0.905;0.0637817
0.906;0.0665283
0.907;0.0689697
0.908;0.071106
0.909;0.0732422
0.91;0.0747681
0.911;0.0765991
0.912;0.078125
0.913;0.0793457
0.914;0.0802612
0.915;0.0808716
0.916;0.0814819
0.917;0.0820923
0.918;0.0830078
0.919;0.0836182
0.92;0.0845337
0.921;0.0854492
0.922;0.0863647
0.923;0.0875854
0.924;0.0891113
0.925;0.0906372
0.926;0.0924683
0.927;0.0946045
0.928;0.0967407
0.929;0.0991821
0.93;0.101624
0.931;0.10376
0.932;0.106201
0.933;0.108948
0.934;0.111694
0.935;0.114746
0.936;0.117493
0.937;0.119934
0.938;0.122375
0.939;0.124207
0.94;0.125732
0.941;0.127258
0.942;0.128479
0.943;0.129395
0.944;0.130005
0.945;0.130005
0.946;0.130005
0.947;0.129089
0.948;0.128479
0.949;0.127563
0.95;0.126953
0.951;0.126648
0.952;0.126648
0.953;0.126953
0.954;0.127258
0.955;0.127563
0.956;0.127869
0.957;0.128174
0.958;0.127869
0.959;0.127563
0.96;0.127258
0.961;0.126648
0.962;0.126038
0.963;0.125122
0.964;0.124207
0.965;0.123291
0.966;0.12207
0.967;0.12085
0.968;0.119629
0.969;0.118713
0.97;0.117798
0.971;0.116272
0.972;0.114746
0.973;0.112915
0.974;0.110779
0.975;0.108948
0.976;0.107117
0.977;0.10498
0.978;0.102844
0.979;0.100403
0.98;0.0982666
0.981;0.0958252
0.982;0.0939941
0.983;0.0921631
0.984;0.0906372
0.985;0.0891113
0.986;0.0872803
0.987;0.0857544
0.988;0.0839233
0.989;0.0820923
0.99;0.0796509
0.991;0.0769043
0.992;0.0738525
0.993;0.0701904
0.994;0.0668335
0.995;0.0631714
0.996;0.0595093
0.997;0.0558472
0.998;0.0521851
0.999;0.0485229
1;0.0448608
1.001;0.0411987
1.002;0.0375366
1.003;0.0335693
1.004;0.0299072
1.005;0.0259399
1.006;0.0222778
1.007;0.0189209
1.008;0.015564
1.009;0.0128174
1.01;0.010376
1.011;0.00793457
1.012;0.00579834
1.013;0.00335693
1.014;0.000915527
1.015;-0.0012207
1.016;-0.00335693
1.017;-0.00518799
1.018;-0.00671387
1.019;-0.00793457
1.02;-0.00854492
1.021;-0.0088501
1.022;-0.00915527
1.023;-0.00946045
1.024;-0.0100708
1.025;-0.0109863
1.026;-0.0115967
1.027;-0.012207
1.028;-0.0125122
1.029;-0.0125122
1.03;-0.012207
1.031;-0.0119019
1.032;-0.0119019
1.033;-0.0119019
1.034;-0.0119019
1.035;-0.0119019
1.036;-0.012207
1.037;-0.0119019
1.038;-0.0119019
1.039;-0.0119019
1.04;-0.012207
1.041;-0.012207
1.042;-0.0125122
1.043;-0.0128174
1.044;-0.0131226
1.045;-0.0137329
1.046;-0.0146484
1.047;-0.015564
1.048;-0.0164795
1.049;-0.017395
1.05;-0.0180054
1.051;-0.0180054
1.052;-0.0180054
1.053;-0.017395
1.054;-0.0164795
1.055;-0.0158691
1.056;-0.0146484
1.057;-0.0134277
1.058;-0.012207
1.059;-0.0109863
1.06;-0.00976562
1.061;-0.0088501
1.062;-0.00793457
1.063;-0.00732422
1.064;-0.00732422
1.065;-0.00732422
1.066;-0.00793457
1.067;-0.00793457
1.068;-0.00823975
1.069;-0.00823975
1.07;-0.00793457
1.071;-0.00793457
1.072;-0.00793457
1.073;-0.00823975
1.074;-0.00823975
1.075;-0.00823975
1.076;-0.00793457
1.077;-0.00762939
1.078;-0.00701904
1.079;-0.00671387
1.08;-0.00610352
1.081;-0.00549316
1.082;-0.00427246
1.083;-0.00274658
1.084;-0.0012207
1.085;0.000610352
1.086;0.00213623
1.087;0.00335693
1.088;0.00427246
1.089;0.00488281
1.09;0.00549316
1.091;0.00549316
1.092;0.00549316
1.093;0.00518799
1.094;0.00457764
1.095;0.00427246
1.096;0.00366211
1.097;0.00335693
1.098;0.00305176
1.099;0.00274658
1.1;0.00274658
1.101;0.00305176
1.102;0.00366211
1.103;0.00457764
1.104;0.00579834
1.105;0.00732422
1.106;0.00915527
1.107;0.0109863
1.108;0.0131226
1.109;0.0149536
1.11;0.0170898
1.111;0.0186157
1.112;0.0201416
1.113;0.0213623
1.114;0.0219727
1.115;0.0228882
1.116;0.0231934
1.117;0.0238037
1.118;0.0241089
1.119;0.0244141
1.12;0.0244141
1.121;0.0244141
1.122;0.0241089
1.123;0.0238037
1.124;0.0234985
1.125;0.0234985
1.126;0.0234985
1.127;0.0238037
1.128;0.0241089
1.129;0.0247192
1.13;0.0247192
1.131;0.0247192
1.132;0.0241089
1.133;0.0234985
1.134;0.022583
1.135;0.0219727
1.136;0.0216675
1.137;0.0219727
1.138;0.022583
1.139;0.0234985
1.14;0.0241089
1.141;0.0250244
1.142;0.0253296
1.143;0.0253296
1.144;0.0250244
1.145;0.0244141
1.146;0.0241089
1.147;0.0238037
1.148;0.0241089
1.149;0.0250244
1.15;0.0256348
1.151;0.0262451
1.152;0.0265503
1.153;0.0265503
1.154;0.0259399
1.155;0.0250244
1.156;0.0238037
1.157;0.022583
1.158;0.0210571
1.159;0.0198364
1.16;0.0183105
1.161;0.0170898
1.162;0.0158691
1.163;0.0149536
1.164;0.0143433
1.165;0.0137329
1.166;0.0131226
1.167;0.0128174
1.168;0.0128174
1.169;0.0134277
1.17;0.0143433
1.171;0.0158691
1.172;0.0177002
1.173;0.0204468
1.174;0.0231934
1.175;0.0262451
1.176;0.0289917
1.177;0.0317383
1.178;0.0344849
1.179;0.0369263
1.18;0.0396729
1.181;0.0424194
1.182;0.045166
1.183;0.0479126
1.184;0.0500488
1.185;0.0512695
1.186;0.0518799
1.187;0.0518799
1.188;0.0509644
1.189;0.0497437
1.19;0.0488281
1.191;0.0479126
1.192;0.0469971
1.193;0.0463867
1.194;0.0457764
1.195;0.0448608
1.196;0.0442505
1.197;0.0430298
1.198;0.0418091
1.199;0.0402832
1.2;0.0384521
1.201;0.0366211
1.202;0.03479
1.203;0.0335693
1.204;0.0323486
1.205;0.0317383
1.206;0.0317383
1.207;0.0320435
1.208;0.0326538
1.209;0.0335693
1.21;0.0344849
1.211;0.03479
1.212;0.03479
1.213;0.0344849
1.214;0.0341797
1.215;0.0341797
1.216;0.0344849
1.217;0.0350952
1.218;0.0360107
1.219;0.0369263
1.22;0.0378418
1.221;0.0387573
1.222;0.0393677
1.223;0.039978
1.224;0.0402832
1.225;0.0402832
1.226;0.0402832
1.227;0.0396729
1.228;0.0390625
1.229;0.0384521
1.23;0.038147
1.231;0.0375366
1.232;0.0369263
1.233;0.0366211
1.234;0.0363159
1.235;0.0360107
1.236;0.0354004
1.237;0.03479
1.238;0.0341797
1.239;0.032959
1.24;0.0317383
1.241;0.0305176
1.242;0.0292969
1.243;0.0283813
1.244;0.0274658
1.245;0.0268555
1.246;0.0262451
1.247;0.0259399
1.248;0.0256348
1.249;0.0256348
1.25;0.0256348
1.251;0.0259399
1.252;0.0262451
1.253;0.0271606
1.254;0.0280762
1.255;0.0289917
1.256;0.0302124
1.257;0.0314331
1.258;0.0323486
1.259;0.0332642
1.26;0.0341797
1.261;0.0350952
1.262;0.0360107
1.263;0.0366211
1.264;0.0372314
1.265;0.0375366
1.266;0.038147
1.267;0.0384521
1.268;0.0390625
1.269;0.0396729
1.27;0.0402832
1.271;0.0402832
1.272;0.0402832
1.273;0.0396729
1.274;0.0393677
1.275;0.0387573
1.276;0.0384521
1.277;0.038147
1.278;0.0378418
1.279;0.0378418
1.28;0.038147
1.281;0.0387573
1.282;0.0393677
1.283;0.0396729
1.284;0.039978
1.285;0.0402832
1.286;0.0402832
1.287;0.039978
1.288;0.0396729
1.289;0.0393677
1.29;0.0387573
1.291;0.038147
1.292;0.0369263
1.293;0.0354004
1.294;0.0338745
1.295;0.0320435
1.296;0.0302124
1.297;0.0283813
1.298;0.0268555
1.299;0.0253296
1.3;0.0244141
1.301;0.0234985
1.302;0.0228882
1.303;0.022583
1.304;0.0222778
1.305;0.0222778
1.306;0.0222778
1.307;0.022583
1.308;0.0231934
1.309;0.0244141
1.31;0.0256348
1.311;0.0268555
1.312;0.0286865
1.313;0.0302124
1.314;0.0320435
1.315;0.0335693
1.316;0.0357056
1.317;0.0375366
1.318;0.0393677
1.319;0.0411987
1.32;0.0427246
1.321;0.0442505
1.322;0.045166
1.323;0.0457764
1.324;0.0460815
1.325;0.0457764
1.326;0.045166
1.327;0.0439453
1.328;0.0424194
1.329;0.0408936
1.33;0.0393677
1.331;0.0375366
1.332;0.0357056
1.333;0.0341797
1.334;0.0323486
1.335;0.0308228
1.336;0.0296021
1.337;0.0283813
1.338;0.0274658
1.339;0.0268555
1.34;0.0262451
1.341;0.0262451
1.342;0.0265503
1.343;0.0271606
1.344;0.0280762
1.345;0.0292969
1.346;0.0305176
1.347;0.0314331
1.348;0.0326538
1.349;0.0341797
1.35;0.0357056
1.351;0.0375366
1.352;0.0393677
1.353;0.0408936
1.354;0.0424194
1.355;0.0436401
1.356;0.0442505
1.357;0.0445557
1.358;0.0445557
1.359;0.0442505
1.36;0.0436401
1.361;0.0427246
1.362;0.0418091
1.363;0.0405884
1.364;0.0387573
1.365;0.0372314
1.366;0.0354004
1.367;0.0338745
1.368;0.0326538
1.369;0.0320435
1.37;0.0317383
1.371;0.0317383
1.372;0.0320435
1.373;0.0323486
1.374;0.032959
1.375;0.0338745
1.376;0.03479
1.377;0.0360107
1.378;0.0372314
1.379;0.0384521
1.38;0.0396729
1.381;0.0408936
1.382;0.0421143
1.383;0.043335
1.384;0.0445557
1.385;0.0457764
1.386;0.0469971
1.387;0.0479126
1.388;0.0485229
1.389;0.0485229
1.39;0.0485229
1.391;0.0482178
1.392;0.0476074
1.393;0.0466919
1.394;0.0454712
1.395;0.0445557
1.396;0.043335
1.397;0.0424194
1.398;0.0415039
1.399;0.0405884
1.4;0.039978
1.401;0.0393677
1.402;0.0393677
1.403;0.0393677
1.404;0.039978
1.405;0.0408936
1.406;0.0421143
1.407;0.0436401
1.408;0.045166
1.409;0.0469971
1.41;0.0488281
1.411;0.050354
1.412;0.0518799
1.413;0.0534058
1.414;0.0552368
1.415;0.057373
1.416;0.0592041
1.417;0.06073
1.418;0.0622559
1.419;0.0637817
1.42;0.0653076
1.421;0.0665283
1.422;0.0680542
1.423;0.0695801
1.424;0.0708008
1.425;0.0720215
1.426;0.072937
1.427;0.0738525
1.428;0.0744629
1.429;0.0753784
1.43;0.0762939
1.431;0.0775146
1.432;0.0790405
1.433;0.0808716
1.434;0.083313
1.435;0.0854492
1.436;0.0875854
1.437;0.0897217
1.438;0.0915527
1.439;0.0930786
1.44;0.0946045
1.441;0.0961304
1.442;0.0976562
1.443;0.098877
1.444;0.0997925
1.445;0.100708
1.446;0.101013
1.447;0.101318
1.448;0.101013
1.449;0.100708
1.45;0.100098
1.451;0.0991821
1.452;0.0982666
1.453;0.0976562
1.454;0.0973511
1.455;0.0967407
1.456;0.0964355
1.457;0.0961304
1.458;0.0958252
1.459;0.0949097
1.46;0.0939941
1.461;0.0933838
1.462;0.0924683
1.463;0.0915527
1.464;0.0906372
1.465;0.0894165
1.466;0.0881958
1.467;0.0869751
1.468;0.0857544
1.469;0.0845337
1.47;0.083313
1.471;0.0823975
1.472;0.0808716
1.473;0.0793457
1.474;0.0775146
1.475;0.0756836
1.476;0.0735474
1.477;0.071106
1.478;0.0689697
1.479;0.0668335
1.48;0.0646973
1.481;0.0628662
1.482;0.0616455
1.483;0.0604248
1.484;0.0595093
1.485;0.0592041
1.486;0.0588989
1.487;0.0592041
1.488;0.0595093
1.489;0.0595093
1.49;0.0598145
1.491;0.0595093
1.492;0.0588989
1.493;0.0582886
1.494;0.0570679
1.495;0.0558472
1.496;0.0546265
1.497;0.0534058
1.498;0.0524902
1.499;0.0512695
1.5;0.050354
1.501;0.0491333
1.502;0.0479126
1.503;0.0466919
1.504;0.0457764
1.505;0.045166
1.506;0.0448608
1.507;0.0445557
1.508;0.0445557
1.509;0.0445557
1.51;0.0448608
1.511;0.045166
1.512;0.045166
1.513;0.0454712
1.514;0.0457764
1.515;0.0463867
1.516;0.0469971
1.517;0.0479126
1.518;0.0491333
1.519;0.0500488
1.52;0.0509644
1.521;0.0515747
1.522;0.0515747
1.523;0.0515747
1.524;0.0512695
1.525;0.0506592
1.526;0.0500488
1.527;0.0497437
1.528;0.0497437
1.529;0.0500488
1.53;0.0500488
1.531;0.050354
1.532;0.0500488
1.533;0.0500488
1.534;0.0500488
1.535;0.050354
1.536;0.0506592
1.537;0.0512695
1.538;0.0518799
1.539;0.0524902
1.54;0.0527954
1.541;0.0527954
1.542;0.0524902
1.543;0.0521851
1.544;0.0515747
1.545;0.0506592
1.546;0.0497437
1.547;0.0488281
1.548;0.0479126
1.549;0.0469971
1.55;0.0457764
1.551;0.0448608
1.552;0.0436401
1.553;0.0424194
1.554;0.0415039
1.555;0.0408936
1.556;0.0405884
1.557;0.0405884
1.558;0.0405884
1.559;0.0411987
1.56;0.0418091
1.561;0.0427246
1.562;0.0439453
1.563;0.045166
1.564;0.0466919
1.565;0.0482178
1.566;0.0500488
1.567;0.0515747
1.568;0.0527954
1.569;0.0543213
1.57;0.0552368
1.571;0.0558472
1.572;0.0564575
1.573;0.0570679
1.574;0.0576782
1.575;0.0585938
1.576;0.0592041
1.577;0.0601196
1.578;0.0604248
1.579;0.06073
1.58;0.06073
1.581;0.0604248
1.582;0.0598145
1.583;0.0595093
1.584;0.0588989
1.585;0.0588989
1.586;0.0588989
1.587;0.0592041
1.588;0.0598145
1.589;0.0604248
1.59;0.06073
1.591;0.0610352
1.592;0.0610352
1.593;0.0604248
1.594;0.0595093
1.595;0.0585938
1.596;0.0579834
1.597;0.0576782
1.598;0.0576782
1.599;0.0585938
1.6;0.0601196
1.601;0.0622559
1.602;0.0653076
1.603;0.0686646
1.604;0.0726318
1.605;0.0772095
1.606;0.0820923
1.607;0.0878906
1.608;0.0946045
1.609;0.102234
1.61;0.110779
1.611;0.120239
1.612;0.131226
1.613;0.143127
1.614;0.15625
1.615;0.170898
1.616;0.186768
1.617;0.204163
1.618;0.222473
1.619;0.24231
1.62;0.263062
1.621;0.284729
1.622;0.306702
1.623;0.328369
1.624;0.348511
1.625;0.366516
1.626;0.381775
1.627;0.393372
1.628;0.401611
1.629;0.406189
1.63;0.40741
1.631;0.404663
1.632;0.39856
1.633;0.388489
1.634;0.374756
1.635;0.357056
1.636;0.335693
1.637;0.310364
1.638;0.281677
1.639;0.250244
1.64;0.216675
1.641;0.18219
1.642;0.147095
1.643;0.11261
1.644;0.0790405
1.645;0.0476074
1.646;0.0186157
1.647;-0.00732422
1.648;-0.0296021
1.649;-0.0482178
1.65;-0.0628662
1.651;-0.0741577
1.652;-0.0817871
1.653;-0.0860596
1.654;-0.0875854
1.655;-0.0860596
1.656;-0.0820923
1.657;-0.0759888
1.658;-0.0686646
1.659;-0.0604248
1.66;-0.0515747
1.661;-0.0424194
1.662;-0.032959
1.663;-0.0241089
1.664;-0.0152588
1.665;-0.00732422
1.666;0
1.667;0.00671387
1.668;0.012207
1.669;0.017395
1.67;0.0219727
1.671;0.0259399
1.672;0.0296021
1.673;0.0326538
1.674;0.0350952
1.675;0.0375366
1.676;0.039978
1.677;0.0421143
1.678;0.0439453
1.679;0.0457764
1.68;0.0473022
1.681;0.0488281
1.682;0.0500488
1.683;0.0509644
1.684;0.0515747
1.685;0.0521851
1.686;0.0521851
1.687;0.0521851
1.688;0.0518799
1.689;0.0518799
1.69;0.0515747
1.691;0.0512695
1.692;0.0509644
1.693;0.0506592
1.694;0.050354
1.695;0.0500488
1.696;0.0494385
1.697;0.0488281
1.698;0.0479126
1.699;0.0463867
1.7;0.0445557
1.701;0.0427246
1.702;0.0411987
1.703;0.039978
1.704;0.0390625
1.705;0.0390625
1.706;0.0393677
1.707;0.039978
1.708;0.0408936
1.709;0.0415039
1.71;0.0421143
1.711;0.0424194
1.712;0.0424194
1.713;0.0424194
1.714;0.0418091
1.715;0.0415039
1.716;0.0415039
1.717;0.0418091
1.718;0.0424194
1.719;0.043335
1.72;0.0448608
1.721;0.0466919
1.722;0.0485229
1.723;0.0506592
1.724;0.0521851
1.725;0.0537109
1.726;0.0549316
1.727;0.0561523
1.728;0.0570679
1.729;0.0579834
1.73;0.0588989
1.731;0.0598145
1.732;0.06073
1.733;0.0613403
1.734;0.0616455
1.735;0.0619507
1.736;0.0619507
1.737;0.0619507
1.738;0.0622559
1.739;0.0622559
1.74;0.062561
1.741;0.0628662
1.742;0.0631714
1.743;0.0634766
1.744;0.0634766
1.745;0.0637817
1.746;0.0643921
1.747;0.0646973
1.748;0.0653076
1.749;0.065918
1.75;0.0665283
1.751;0.0668335
1.752;0.0668335
1.753;0.0668335
1.754;0.0668335
1.755;0.0671387
1.756;0.067749
1.757;0.0686646
1.758;0.0698853
1.759;0.0708008
1.76;0.0714111
1.761;0.0717163
1.762;0.0717163
1.763;0.0720215
1.764;0.0720215
1.765;0.0723267
1.766;0.0723267
1.767;0.0726318
1.768;0.0732422
1.769;0.0738525
1.77;0.0747681
1.771;0.0759888
1.772;0.0775146
1.773;0.0793457
1.774;0.0814819
1.775;0.0842285
1.776;0.0866699
1.777;0.0894165
1.778;0.0918579
1.779;0.0939941
1.78;0.09552
1.781;0.0967407
1.782;0.0976562
1.783;0.0982666
1.784;0.098877
1.785;0.098877
1.786;0.098877
1.787;0.0982666
1.788;0.0973511
1.789;0.0964355
1.79;0.09552
1.791;0.0946045
1.792;0.093689
1.793;0.0930786
1.794;0.0924683
1.795;0.0921631
1.796;0.0918579
1.797;0.0912476
1.798;0.0900269
1.799;0.088501
1.8;0.0866699
1.801;0.085144
1.802;0.0842285
1.803;0.0839233
1.804;0.0839233
1.805;0.0845337
1.806;0.0854492
1.807;0.0866699
1.808;0.0875854
1.809;0.088501
1.81;0.0891113
1.811;0.0897217
1.812;0.090332
1.813;0.0909424
1.814;0.0918579
1.815;0.0927734
1.816;0.0939941
1.817;0.0952148
1.818;0.0961304
1.819;0.0973511
1.82;0.0982666
1.821;0.0994873
1.822;0.100403
1.823;0.101318
1.824;0.102234
1.825;0.103149
1.826;0.104065
1.827;0.104675
1.828;0.105286
1.829;0.106201
1.83;0.106812
1.831;0.107422
1.832;0.108337
1.833;0.109253
1.834;0.110168
1.835;0.111389
1.836;0.112915
1.837;0.114441
1.838;0.116272
1.839;0.118103
1.84;0.120544
1.841;0.123291
1.842;0.126038
1.843;0.129089
1.844;0.132141
1.845;0.135193
1.846;0.138245
1.847;0.140991
1.848;0.143738
1.849;0.14679
1.85;0.149536
1.851;0.151978
1.852;0.154724
1.853;0.157166
1.854;0.159607
1.855;0.162048
1.856;0.164185
1.857;0.166321
1.858;0.168152
1.859;0.169678
1.86;0.170898
1.861;0.171814
1.862;0.172119
1.863;0.172729
1.864;0.173035
1.865;0.173645
1.866;0.174561
1.867;0.175476
1.868;0.176086
1.869;0.176697
1.87;0.176697
1.871;0.176697
1.872;0.176086
1.873;0.175476
1.874;0.175171
1.875;0.174866
1.876;0.174561
1.877;0.17395
1.878;0.17334
1.879;0.172729
1.88;0.172119
1.881;0.171509
1.882;0.171509
1.883;0.171204
1.884;0.170898
1.885;0.170288
1.886;0.169373
1.887;0.168152
1.888;0.167236
1.889;0.166626
1.89;0.166321
1.891;0.166321
1.892;0.166321
1.893;0.166321
1.894;0.166016
1.895;0.165405
1.896;0.164795
1.897;0.163879
1.898;0.163269
1.899;0.162354
1.9;0.161133
1.901;0.160217
1.902;0.158997
1.903;0.157471
1.904;0.155945
1.905;0.154419
1.906;0.151978
1.907;0.149536
1.908;0.146484
1.909;0.143738
1.91;0.140991
1.911;0.13855
1.912;0.136108
1.913;0.133362
1.914;0.13092
1.915;0.128174
1.916;0.124817
1.917;0.12146
1.918;0.117798
1.919;0.113831
1.92;0.109863
1.921;0.105896
1.922;0.102234
1.923;0.0985718
1.924;0.0958252
1.925;0.0930786
1.926;0.090332
1.927;0.0872803
1.928;0.0839233
1.929;0.0805664
1.93;0.0769043
1.931;0.0732422
1.932;0.0695801
1.933;0.0662231
1.934;0.0631714
1.935;0.06073
1.936;0.0588989
1.937;0.057373
1.938;0.0558472
1.939;0.0540161
1.94;0.0521851
1.941;0.050354
1.942;0.0485229
1.943;0.0466919
1.944;0.0448608
1.945;0.0430298
1.946;0.0411987
1.947;0.0396729
1.948;0.038147
1.949;0.0366211
1.95;0.0354004
1.951;0.0335693
1.952;0.0317383
1.953;0.0296021
1.954;0.0274658
1.955;0.0250244
1.956;0.022583
1.957;0.0201416
1.958;0.0177002
1.959;0.015564
1.96;0.0137329
1.961;0.012207
1.962;0.0106812
1.963;0.00946045
1.964;0.00793457
1.965;0.00671387
1.966;0.00549316
1.967;0.00427246
1.968;0.00335693
1.969;0.00213623
1.97;0.000915527
1.971;-0.000610352
1.972;-0.00183105
1.973;-0.00305176
1.974;-0.00366211
1.975;-0.00396729
1.976;-0.00396729
1.977;-0.00396729
1.978;-0.00396729
1.979;-0.00396729
1.98;-0.00396729
1.981;-0.00396729
1.982;-0.00396729
1.983;-0.00396729
1.984;-0.00366211
1.985;-0.00366211
1.986;-0.00366211
1.987;-0.00366211
1.988;-0.00366211
1.989;-0.00366211
1.99;-0.00335693
1.991;-0.00274658
1.992;-0.00244141
1.993;-0.00213623
1.994;-0.00213623
1.995;-0.00213623
1.996;-0.00244141
1.997;-0.00244141
1.998;-0.00274658
1.999;-0.00274658
2;-0.00274658
2.001;-0.00274658
2.002;-0.00213623
2.003;-0.0012207
2.004;-0.000305176
2.005;0.000305176
2.006;0.000915527
2.007;0.0012207
2.008;0.00152588
2.009;0.00213623
2.01;0.00274658
2.011;0.00396729
2.012;0.00518799
2.013;0.00640869
2.014;0.00732422
2.015;0.00823975
2.016;0.00854492
2.017;0.00823975
2.018;0.00762939
2.019;0.00671387
2.02;0.00610352
2.021;0.00549316
2.022;0.00488281
2.023;0.00457764
2.024;0.00457764
2.025;0.00488281
2.026;0.00518799
2.027;0.00549316
2.028;0.00610352
2.029;0.00671387
2.03;0.00701904
2.031;0.00701904
2.032;0.00701904
2.033;0.00701904
2.034;0.00732422
2.035;0.00762939
2.036;0.00854492
2.037;0.00915527
2.038;0.0100708
2.039;0.0109863
2.04;0.0115967
2.041;0.0119019
2.042;0.0119019
2.043;0.0115967
2.044;0.0112915
2.045;0.010376
2.046;0.00976562
2.047;0.0088501
2.048;0.00823975
2.049;0.00762939
2.05;0.00732422
2.051;0.00732422
2.052;0.00732422
2.053;0.00762939
2.054;0.00793457
2.055;0.00854492
2.056;0.00946045
2.057;0.0106812
2.058;0.0115967
2.059;0.0125122
2.06;0.0131226
2.061;0.0137329
2.062;0.0143433
2.063;0.0149536
2.064;0.0152588
2.065;0.0152588
2.066;0.0149536
2.067;0.0143433
2.068;0.0137329
2.069;0.0128174
2.07;0.0119019
2.071;0.010376
2.072;0.0088501
2.073;0.00701904
2.074;0.00518799
2.075;0.00366211
2.076;0.00213623
2.077;0.0012207
2.078;0.000305176
2.079;-0.000610352
2.08;-0.000915527
2.081;-0.000915527
2.082;0
2.083;0.0012207
2.084;0.00274658
2.085;0.00457764
2.086;0.00671387
2.087;0.0088501
2.088;0.0112915
2.089;0.0134277
2.09;0.015564
2.091;0.0180054
2.092;0.0201416
2.093;0.0219727
2.094;0.0238037
2.095;0.0253296
2.096;0.0268555
2.097;0.027771
2.098;0.0283813
2.099;0.0283813
2.1;0.027771
2.101;0.0268555
2.102;0.0256348
2.103;0.0241089
2.104;0.022583
2.105;0.020752
2.106;0.0192261
2.107;0.0180054
2.108;0.0164795
2.109;0.0149536
2.11;0.0140381
2.111;0.0131226
2.112;0.012207
2.113;0.0119019
2.114;0.0115967
2.115;0.0115967
2.116;0.0115967
2.117;0.0119019
2.118;0.0119019
2.119;0.0119019
2.12;0.0119019
2.121;0.012207
2.122;0.0125122
2.123;0.0131226
2.124;0.0140381
2.125;0.0149536
2.126;0.015564
2.127;0.0161743
2.128;0.0164795
2.129;0.0170898
2.13;0.017395
2.131;0.0177002
2.132;0.017395
2.133;0.0167847
2.134;0.0158691
2.135;0.0146484
2.136;0.0134277
2.137;0.012207
2.138;0.0112915
2.139;0.010376
2.14;0.00946045
2.141;0.0088501
2.142;0.00823975
2.143;0.00732422
2.144;0.00671387
2.145;0.00579834
2.146;0.00518799
2.147;0.00427246
2.148;0.00366211
2.149;0.00274658
2.15;0.00244141
2.151;0.00183105
2.152;0.00183105
2.153;0.00244141
2.154;0.00305176
2.155;0.00427246
2.156;0.00549316
2.157;0.00671387
2.158;0.00762939
2.159;0.00854492
2.16;0.00915527
2.161;0.00946045
2.162;0.00946045
2.163;0.00946045
2.164;0.00946045
2.165;0.00946045
2.166;0.00915527
2.167;0.00915527
2.168;0.0088501
2.169;0.0088501
2.17;0.00854492
2.171;0.00793457
2.172;0.00701904
2.173;0.00579834
2.174;0.00488281
2.175;0.00396729
2.176;0.00335693
2.177;0.00274658
2.178;0.00244141
2.179;0.00152588
2.18;0.000305176
2.181;-0.000610352
2.182;-0.00183105
2.183;-0.00305176
2.184;-0.00396729
2.185;-0.00457764
2.186;-0.00518799
2.187;-0.00518799
2.188;-0.00488281
2.189;-0.00457764
2.19;-0.00366211
2.191;-0.00305176
2.192;-0.00274658
2.193;-0.00274658
2.194;-0.00244141
2.195;-0.00244141
2.196;-0.00213623
2.197;-0.00183105
2.198;-0.0012207
2.199;-0.000610352
2.2;0.000610352
2.201;0.00183105
2.202;0.00305176
2.203;0.00457764
2.204;0.00610352
2.205;0.00701904
2.206;0.00793457
2.207;0.0088501
2.208;0.00946045
2.209;0.010376
2.21;0.0115967
2.211;0.0125122
2.212;0.0137329
2.213;0.0146484
2.214;0.0158691
2.215;0.0170898
2.216;0.0180054
2.217;0.0189209
2.218;0.0195312
2.219;0.0198364
2.22;0.0198364
2.221;0.0198364
2.222;0.0195312
2.223;0.0192261
2.224;0.0192261
2.225;0.0195312
2.226;0.0201416
2.227;0.020752
2.228;0.0213623
2.229;0.0219727
2.23;0.022583
2.231;0.0228882
2.232;0.0234985
2.233;0.0238037
2.234;0.0247192
2.235;0.0253296
2.236;0.0259399
2.237;0.0268555
2.238;0.027771
2.239;0.0286865
2.24;0.0296021
2.241;0.0305176
2.242;0.0314331
2.243;0.032959
2.244;0.0344849
2.245;0.0363159
2.246;0.0378418
2.247;0.0390625
2.248;0.039978
2.249;0.0408936
2.25;0.0415039
2.251;0.0421143
2.252;0.0427246
2.253;0.0430298
2.254;0.0436401
2.255;0.0442505
2.256;0.0448608
2.257;0.045166
2.258;0.0457764
2.259;0.0463867
2.26;0.0469971
2.261;0.0476074
2.262;0.0485229
2.263;0.0491333
2.264;0.0497437
2.265;0.0497437
2.266;0.0494385
2.267;0.0488281
2.268;0.0482178
2.269;0.0473022
2.27;0.0463867
2.271;0.045166
2.272;0.0439453
2.273;0.0430298
2.274;0.0421143
2.275;0.0418091
2.276;0.0418091
2.277;0.0421143
2.278;0.0421143
2.279;0.0418091
2.28;0.0411987
2.281;0.0405884
2.282;0.0396729
2.283;0.0387573
2.284;0.038147
2.285;0.0378418
2.286;0.0375366
2.287;0.0369263
2.288;0.0360107
2.289;0.03479
2.29;0.0332642
2.291;0.0317383
2.292;0.0305176
2.293;0.0289917
2.294;0.027771
2.295;0.0265503
2.296;0.0253296
2.297;0.0238037
2.298;0.0219727
2.299;0.0201416
2.3;0.0180054
2.301;0.0161743
2.302;0.0143433
2.303;0.0128174
2.304;0.0112915
2.305;0.0100708
2.306;0.00915527
2.307;0.00823975
2.308;0.00732422
2.309;0.00671387
2.31;0.00610352
2.311;0.00579834
2.312;0.00579834
2.313;0.00579834
2.314;0.00610352
2.315;0.00640869
2.316;0.00701904
2.317;0.00732422
2.318;0.00762939
2.319;0.00762939
2.32;0.00732422
2.321;0.00701904
2.322;0.00671387
2.323;0.00671387
2.324;0.00640869
2.325;0.00610352
2.326;0.00579834
2.327;0.00549316
2.328;0.00488281
2.329;0.00396729
2.33;0.00335693
2.331;0.00244141
2.332;0.0012207
2.333;0.000305176
2.334;-0.000915527
2.335;-0.00183105
2.336;-0.00274658
2.337;-0.00366211
2.338;-0.00427246
2.339;-0.00488281
2.34;-0.00518799
2.341;-0.00549316
2.342;-0.00549316
2.343;-0.00518799
2.344;-0.00457764
2.345;-0.00366211
2.346;-0.00274658
2.347;-0.00152588
2.348;-0.000610352
2.349;0.000915527
2.35;0.00213623
2.351;0.00335693
2.352;0.00457764
2.353;0.00549316
2.354;0.00640869
2.355;0.00762939
2.356;0.00854492
2.357;0.00976562
2.358;0.0109863
2.359;0.0125122
2.36;0.0134277
2.361;0.0146484
2.362;0.015564
2.363;0.0161743
2.364;0.0161743
2.365;0.0158691
2.366;0.0149536
2.367;0.0137329
2.368;0.0125122
2.369;0.0112915
2.37;0.00976562
2.371;0.00854492
2.372;0.00701904
2.373;0.00579834
2.374;0.00457764
2.375;0.00335693
2.376;0.00274658
2.377;0.00244141
2.378;0.00244141
2.379;0.00213623
2.38;0.00183105
2.381;0.00152588
2.382;0.0012207
2.383;0.0012207
2.384;0.0012207
2.385;0.00152588
2.386;0.00213623
2.387;0.00305176
2.388;0.00427246
2.389;0.00579834
2.39;0.00793457
2.391;0.0100708
2.392;0.0125122
2.393;0.0146484
2.394;0.0164795
2.395;0.0180054
2.396;0.0189209
2.397;0.0195312
2.398;0.0198364
2.399;0.0198364
2.4;0.0198364
2.401;0.0198364
2.402;0.0201416
2.403;0.020752
2.404;0.0216675
2.405;0.0228882
2.406;0.0241089
2.407;0.0253296
2.408;0.0268555
2.409;0.0283813
2.41;0.0305176
2.411;0.032959
2.412;0.0357056
2.413;0.0390625
2.414;0.0424194
2.415;0.0466919
2.416;0.0515747
2.417;0.057373
2.418;0.0640869
2.419;0.0720215
2.42;0.0808716
2.421;0.0906372
2.422;0.101929
2.423;0.114136
2.424;0.127563
2.425;0.142212
2.426;0.158386
2.427;0.175476
2.428;0.194397
2.429;0.214844
2.43;0.236511
2.431;0.258484
2.432;0.280457
2.433;0.301514
2.434;0.32135
2.435;0.33905
2.436;0.353699
2.437;0.365295
2.438;0.373535
2.439;0.377808
2.44;0.378113
2.441;0.374451
2.442;0.367126
2.443;0.35553
2.444;0.339966
2.445;0.320435
2.446;0.297241
2.447;0.270386
2.448;0.240479
2.449;0.208435
2.45;0.174866
2.451;0.140076
2.452;0.105286
2.453;0.0708008
2.454;0.0375366
2.455;0.00579834
2.456;-0.0231934
2.457;-0.0497437
2.458;-0.072937
2.459;-0.0921631
2.46;-0.107422
2.461;-0.118713
2.462;-0.126343
2.463;-0.13092
2.464;-0.132751
2.465;-0.132141
2.466;-0.129395
2.467;-0.124817
2.468;-0.118713
2.469;-0.111389
2.47;-0.103455
2.471;-0.0949097
2.472;-0.0863647
2.473;-0.0778198
2.474;-0.0692749
2.475;-0.0613403
2.476;-0.0537109
2.477;-0.0463867
2.478;-0.039978
2.479;-0.0341797
2.48;-0.0292969
2.481;-0.0247192
2.482;-0.0210571
2.483;-0.0180054
2.484;-0.015564
2.485;-0.0137329
2.486;-0.0119019
2.487;-0.010376
2.488;-0.0088501
2.489;-0.00793457
2.49;-0.00701904
2.491;-0.00640869
2.492;-0.00640869
2.493;-0.00640869
2.494;-0.00671387
2.495;-0.00701904
2.496;-0.00732422
2.497;-0.00762939
2.498;-0.00793457
2.499;-0.00823975
2.5;-0.00823975
2.501;-0.00823975
2.502;-0.00793457
2.503;-0.00732422
2.504;-0.00671387
2.505;-0.00579834
2.506;-0.00518799
2.507;-0.00427246
2.508;-0.00305176
2.509;-0.00152588
2.51;0.000305176
2.511;0.00213623
2.512;0.00396729
2.513;0.00549316
2.514;0.00671387
2.515;0.00793457
2.516;0.0088501
2.517;0.00976562
2.518;0.0106812
2.519;0.0115967
2.52;0.0125122
2.521;0.0134277
2.522;0.0146484
2.523;0.015564
2.524;0.0170898
2.525;0.0183105
2.526;0.0192261
2.527;0.0204468
2.528;0.0213623
2.529;0.022583
2.53;0.0234985
2.531;0.0247192
2.532;0.0259399
2.533;0.0265503
2.534;0.0274658
2.535;0.027771
2.536;0.0283813
2.537;0.0289917
2.538;0.0296021
2.539;0.0299072
2.54;0.0302124
2.541;0.0302124
2.542;0.0302124
2.543;0.0299072
2.544;0.0292969
2.545;0.0286865
2.546;0.0280762
2.547;0.0274658
2.548;0.0271606
2.549;0.0271606
2.55;0.0274658
2.551;0.027771
2.552;0.0280762
2.553;0.0283813
2.554;0.0289917
2.555;0.0299072
2.556;0.0314331
2.557;0.032959
2.558;0.0344849
2.559;0.0360107
2.56;0.0378418
2.561;0.0396729
2.562;0.0408936
2.563;0.0418091
2.564;0.0424194
2.565;0.0427246
2.566;0.0424194
2.567;0.0424194
2.568;0.0421143
2.569;0.0418091
2.57;0.0418091
2.571;0.0411987
2.572;0.0402832
2.573;0.0390625
2.574;0.0378418
2.575;0.0363159
2.576;0.0344849
2.577;0.032959
2.578;0.0317383
2.579;0.0302124
2.58;0.0289917
2.581;0.027771
2.582;0.0265503
2.583;0.0256348
2.584;0.0247192
2.585;0.0241089
2.586;0.0241089
2.587;0.0241089
2.588;0.0247192
2.589;0.0256348
2.59;0.0268555
2.591;0.0280762
2.592;0.0289917
2.593;0.0296021
2.594;0.0302124
2.595;0.0308228
2.596;0.0314331
2.597;0.0323486
2.598;0.032959
2.599;0.0338745
2.6;0.03479
2.601;0.0354004
2.602;0.0360107
2.603;0.0369263
2.604;0.0378418
2.605;0.0387573
2.606;0.0396729
2.607;0.0402832
2.608;0.0411987
2.609;0.0424194
2.61;0.043335
2.611;0.0439453
2.612;0.0439453
2.613;0.0439453
2.614;0.0439453
2.615;0.0436401
2.616;0.043335
2.617;0.0430298
2.618;0.0427246
2.619;0.0427246
2.62;0.0424194
2.621;0.0421143
2.622;0.0415039
2.623;0.0408936
2.624;0.039978
2.625;0.0390625
2.626;0.038147
2.627;0.0369263
2.628;0.0357056
2.629;0.0350952
2.63;0.03479
2.631;0.03479
2.632;0.0350952
2.633;0.0360107
2.634;0.0375366
2.635;0.0390625
2.636;0.0411987
2.637;0.0439453
2.638;0.0466919
2.639;0.0494385
2.64;0.0524902
2.641;0.0552368
2.642;0.0582886
2.643;0.0613403
2.644;0.0643921
2.645;0.0674438
2.646;0.0704956
2.647;0.0735474
2.648;0.0769043
2.649;0.0799561
2.65;0.0827026
2.651;0.085144
2.652;0.0869751
2.653;0.0888062
2.654;0.0900269
2.655;0.0909424
2.656;0.0918579
2.657;0.0927734
2.658;0.0933838
2.659;0.0939941
2.66;0.0946045
2.661;0.0949097
2.662;0.09552
2.663;0.0961304
2.664;0.0973511
2.665;0.0985718
2.666;0.100403
2.667;0.102539
2.668;0.104675
2.669;0.107117
2.67;0.109558
2.671;0.112
2.672;0.114746
2.673;0.117493
2.674;0.120544
2.675;0.123291
2.676;0.126038
2.677;0.128784
2.678;0.131226
2.679;0.133667
2.68;0.135803
2.681;0.137939
2.682;0.140076
2.683;0.141907
2.684;0.143738
2.685;0.144958
2.686;0.145874
2.687;0.145874
2.688;0.145569
2.689;0.144958
2.69;0.144348
2.691;0.143433
2.692;0.142517
2.693;0.141296
2.694;0.140076
2.695;0.138855
2.696;0.137939
2.697;0.137024
2.698;0.136414
2.699;0.135498
2.7;0.134583
2.701;0.133667
2.702;0.132751
2.703;0.131531
2.704;0.13031
2.705;0.129089
2.706;0.127563
2.707;0.126038
2.708;0.124817
2.709;0.122986
2.71;0.121155
2.711;0.118713
2.712;0.115967
2.713;0.112915
2.714;0.109863
2.715;0.107117
2.716;0.104065
2.717;0.101318
2.718;0.098877
2.719;0.0961304
2.72;0.0933838
2.721;0.0906372
2.722;0.0875854
2.723;0.0845337
2.724;0.0814819
2.725;0.0784302
2.726;0.0756836
2.727;0.072937
2.728;0.0704956
2.729;0.067749
2.73;0.0650024
2.731;0.0616455
2.732;0.0576782
2.733;0.0534058
2.734;0.0485229
2.735;0.0436401
2.736;0.0387573
2.737;0.0341797
2.738;0.0302124
2.739;0.0265503
2.74;0.0231934
2.741;0.0195312
2.742;0.0161743
2.743;0.012207
2.744;0.00854492
2.745;0.00457764
2.746;0.000610352
2.747;-0.00274658
2.748;-0.00579834
2.749;-0.00823975
2.75;-0.00976562
2.751;-0.0109863
2.752;-0.0115967
2.753;-0.0119019
2.754;-0.0115967
2.755;-0.0112915
2.756;-0.0106812
2.757;-0.0100708
2.758;-0.00915527
2.759;-0.00854492
2.76;-0.00793457
2.761;-0.00732422
2.762;-0.00701904
2.763;-0.00701904
2.764;-0.00701904
2.765;-0.00732422
2.766;-0.00793457
2.767;-0.00823975
2.768;-0.0088501
2.769;-0.00946045
2.77;-0.010376
2.771;-0.0119019
2.772;-0.0137329
2.773;-0.0158691
2.774;-0.0180054
2.775;-0.0201416
2.776;-0.0222778
2.777;-0.0241089
2.778;-0.0262451
2.779;-0.0280762
2.78;-0.0296021
2.781;-0.0308228
2.782;-0.0317383
2.783;-0.0326538
2.784;-0.032959
2.785;-0.0326538
2.786;-0.0320435
2.787;-0.0308228
2.788;-0.0292969
2.789;-0.0274658
2.79;-0.0253296
2.791;-0.0231934
2.792;-0.020752
2.793;-0.0186157
2.794;-0.0161743
2.795;-0.0134277
2.796;-0.0109863
2.797;-0.0088501
2.798;-0.00640869
2.799;-0.00427246
2.8;-0.00244141
2.801;-0.000915527
2.802;0.000305176
2.803;0.000610352
2.804;0.000610352
2.805;0.000305176
2.806;0
2.807;-0.000610352
2.808;-0.0012207
2.809;-0.00183105
2.81;-0.00305176
2.811;-0.00457764
2.812;-0.00640869
2.813;-0.00823975
2.814;-0.010376
2.815;-0.0119019
2.816;-0.0137329
2.817;-0.0149536
2.818;-0.0161743
2.819;-0.0170898
2.82;-0.0177002
2.821;-0.0183105
2.822;-0.0183105
2.823;-0.0180054
2.824;-0.0177002
2.825;-0.017395
2.826;-0.0170898
2.827;-0.0170898
2.828;-0.017395
2.829;-0.017395
2.83;-0.0170898
2.831;-0.0167847
2.832;-0.0161743
2.833;-0.0152588
2.834;-0.0146484
2.835;-0.0143433
2.836;-0.0137329
2.837;-0.0137329
2.838;-0.0137329
2.839;-0.0143433
2.84;-0.0152588
2.841;-0.0161743
2.842;-0.0170898
2.843;-0.0183105
2.844;-0.0195312
2.845;-0.020752
2.846;-0.0219727
2.847;-0.0234985
2.848;-0.0247192
2.849;-0.0250244
2.85;-0.0250244
2.851;-0.0247192
2.852;-0.0238037
2.853;-0.0231934
2.854;-0.0228882
2.855;-0.022583
2.856;-0.022583
2.857;-0.022583
2.858;-0.0222778
2.859;-0.0219727
2.86;-0.0213623
2.861;-0.0204468
2.862;-0.0192261
2.863;-0.0183105
2.864;-0.0177002
2.865;-0.0170898
2.866;-0.0167847
2.867;-0.0164795
2.868;-0.0158691
2.869;-0.015564
2.87;-0.0149536
2.871;-0.0140381
2.872;-0.0134277
2.873;-0.0128174
2.874;-0.0125122
2.875;-0.012207
2.876;-0.012207
2.877;-0.0119019
2.878;-0.0115967
2.879;-0.0112915
2.88;-0.0112915
2.881;-0.0112915
2.882;-0.0109863
2.883;-0.0109863
2.884;-0.0106812
2.885;-0.0100708
2.886;-0.00946045
2.887;-0.00915527
2.888;-0.00915527
2.889;-0.00915527
2.89;-0.0100708
2.891;-0.0106812
2.892;-0.0115967
2.893;-0.012207
2.894;-0.0125122
2.895;-0.012207
2.896;-0.0115967
2.897;-0.0109863
2.898;-0.010376
2.899;-0.0100708
2.9;-0.010376
2.901;-0.0109863
2.902;-0.012207
2.903;-0.0134277
2.904;-0.0146484
2.905;-0.015564
2.906;-0.0161743
2.907;-0.0164795
2.908;-0.0161743
2.909;-0.0158691
2.91;-0.0152588
2.911;-0.0149536
2.912;-0.0146484
2.913;-0.0149536
2.914;-0.0152588
2.915;-0.0158691
2.916;-0.0161743
2.917;-0.0164795
2.918;-0.0164795
2.919;-0.0161743
2.92;-0.015564
2.921;-0.0146484
2.922;-0.0134277
2.923;-0.0119019
2.924;-0.010376
2.925;-0.0088501
2.926;-0.00762939
2.927;-0.00671387
2.928;-0.00610352
2.929;-0.00579834
2.93;-0.00549316
2.931;-0.00549316
2.932;-0.00549316
2.933;-0.00610352
2.934;-0.00610352
2.935;-0.00640869
2.936;-0.00640869
2.937;-0.00610352
2.938;-0.00610352
2.939;-0.00579834
2.94;-0.00549316
2.941;-0.00549316
2.942;-0.00518799
2.943;-0.00549316
2.944;-0.00610352
2.945;-0.00671387
2.946;-0.00701904
2.947;-0.00762939
2.948;-0.00762939
2.949;-0.00793457
2.95;-0.00793457
2.951;-0.00793457
2.952;-0.00793457
2.953;-0.00762939
2.954;-0.00762939
2.955;-0.00762939
2.956;-0.00793457
2.957;-0.00823975
2.958;-0.0088501
2.959;-0.0100708
2.96;-0.0115967
2.961;-0.0131226
2.962;-0.0146484
2.963;-0.0161743
2.964;-0.0170898
2.965;-0.0177002
2.966;-0.0183105
2.967;-0.0183105
2.968;-0.0183105
2.969;-0.0180054
2.97;-0.0177002
2.971;-0.017395
2.972;-0.0177002
2.973;-0.0180054
2.974;-0.0186157
2.975;-0.0192261
2.976;-0.0198364
2.977;-0.0204468
2.978;-0.020752
2.979;-0.0213623
2.98;-0.0219727
2.981;-0.022583
2.982;-0.0238037
2.983;-0.0253296
2.984;-0.0268555
2.985;-0.0286865
2.986;-0.0305176
2.987;-0.0320435
2.988;-0.032959
2.989;-0.0335693
2.99;-0.0338745
2.991;-0.0338745
2.992;-0.0332642
2.993;-0.0326538
2.994;-0.0317383
2.995;-0.0305176
2.996;-0.0292969
2.997;-0.0280762
2.998;-0.0265503
2.999;-0.0253296
3;-0.0241089
3.001;-0.022583
3.002;-0.0210571
3.003;-0.0192261
3.004;-0.017395
3.005;-0.015564
3.006;-0.0140381
3.007;-0.0128174
3.008;-0.012207
3.009;-0.012207
3.01;-0.0128174
3.011;-0.0140381
3.012;-0.015564
3.013;-0.017395
3.014;-0.0192261
3.015;-0.020752
3.016;-0.0216675
3.017;-0.022583
3.018;-0.0228882
3.019;-0.0234985
3.02;-0.0241089
3.021;-0.0247192
3.022;-0.0253296
3.023;-0.0256348
3.024;-0.0256348
3.025;-0.0250244
3.026;-0.0244141
3.027;-0.0231934
3.028;-0.0219727
3.029;-0.0201416
3.03;-0.0180054
3.031;-0.0161743
3.032;-0.0140381
3.033;-0.0119019
3.034;-0.0100708
3.035;-0.00854492
3.036;-0.00701904
3.037;-0.00549316
3.038;-0.00396729
3.039;-0.00213623
3.04;-0.000305176
3.041;0.00152588
3.042;0.00366211
3.043;0.00549316
3.044;0.00732422
3.045;0.0088501
3.046;0.0100708
3.047;0.0115967
3.048;0.0134277
3.049;0.0149536
3.05;0.0164795
3.051;0.0180054
3.052;0.0192261
3.053;0.0204468
3.054;0.0210571
3.055;0.0216675
3.056;0.0222778
3.057;0.022583
3.058;0.0228882
3.059;0.0231934
3.06;0.0231934
3.061;0.0228882
3.062;0.022583
3.063;0.0219727
3.064;0.0210571
3.065;0.0201416
3.066;0.0189209
3.067;0.017395
3.068;0.0158691
3.069;0.0143433
3.07;0.0131226
3.071;0.0119019
3.072;0.0109863
3.073;0.0100708
3.074;0.00946045
3.075;0.00854492
3.076;0.00793457
3.077;0.00701904
3.078;0.00640869
3.079;0.00610352
3.08;0.00610352
3.081;0.00671387
3.082;0.00732422
3.083;0.00854492
3.084;0.00946045
3.085;0.010376
3.086;0.0109863
3.087;0.0109863
3.088;0.0109863
3.089;0.0106812
3.09;0.010376
3.091;0.00976562
3.092;0.00915527
3.093;0.00823975
3.094;0.00732422
3.095;0.00610352
3.096;0.00457764
3.097;0.00305176
3.098;0.000915527
3.099;-0.00183105
3.1;-0.00457764
3.101;-0.00732422
3.102;-0.0100708
3.103;-0.0128174
3.104;-0.0158691
3.105;-0.0189209
3.106;-0.022583
3.107;-0.0262451
3.108;-0.0299072
3.109;-0.032959
3.11;-0.0357056
3.111;-0.0378418
3.112;-0.0393677
3.113;-0.0408936
3.114;-0.0421143
3.115;-0.0430298
3.116;-0.0439453
3.117;-0.0448608
3.118;-0.0454712
3.119;-0.0463867
3.12;-0.0473022
3.121;-0.0482178
3.122;-0.0488281
3.123;-0.0488281
3.124;-0.0491333
3.125;-0.0491333
3.126;-0.0491333
3.127;-0.0491333
3.128;-0.0494385
3.129;-0.0500488
3.13;-0.0506592
3.131;-0.0512695
3.132;-0.0518799
3.133;-0.0531006
3.134;-0.0540161
3.135;-0.0549316
3.136;-0.0558472
3.137;-0.0567627
3.138;-0.057373
3.139;-0.0579834
3.14;-0.0579834
3.141;-0.0576782
3.142;-0.0570679
3.143;-0.0561523
3.144;-0.0552368
3.145;-0.0540161
3.146;-0.0531006
3.147;-0.0521851
3.148;-0.0512695
3.149;-0.0506592
3.15;-0.0497437
3.151;-0.0485229
3.152;-0.0473022
3.153;-0.0457764
3.154;-0.0445557
3.155;-0.0430298
3.156;-0.0415039
3.157;-0.039978
3.158;-0.038147
3.159;-0.0363159
3.16;-0.0341797
3.161;-0.0323486
3.162;-0.0305176
3.163;-0.0292969
3.164;-0.0280762
3.165;-0.0268555
3.166;-0.0259399
3.167;-0.0253296
3.168;-0.0247192
3.169;-0.0241089
3.17;-0.0234985
3.171;-0.0231934
3.172;-0.0228882
3.173;-0.0228882
3.174;-0.0231934
3.175;-0.0238037
3.176;-0.0244141
3.177;-0.0256348
3.178;-0.0265503
3.179;-0.0274658
3.18;-0.0283813
3.181;-0.0289917
3.182;-0.0292969
3.183;-0.0296021
3.184;-0.0296021
3.185;-0.0299072
3.186;-0.0305176
3.187;-0.0314331
3.188;-0.0326538
3.189;-0.0335693
3.19;-0.0341797
3.191;-0.0344849
3.192;-0.03479
3.193;-0.0350952
3.194;-0.0354004
3.195;-0.0354004
3.196;-0.0354004
3.197;-0.0350952
3.198;-0.0344849
3.199;-0.0341797
3.2;-0.0341797
3.201;-0.0338745
3.202;-0.0335693
3.203;-0.0332642
3.204;-0.032959
3.205;-0.0320435
3.206;-0.0308228
3.207;-0.0289917
3.208;-0.0265503
3.209;-0.0231934
3.21;-0.0189209
3.211;-0.0140381
3.212;-0.00793457
3.213;-0.0012207
3.214;0.00640869
3.215;0.0149536
3.216;0.0241089
3.217;0.0338745
3.218;0.0442505
3.219;0.0558472
3.22;0.0680542
3.221;0.0814819
3.222;0.0964355
3.223;0.112915
3.224;0.13092
3.225;0.150452
3.226;0.171509
3.227;0.193481
3.228;0.21637
3.229;0.238953
3.23;0.260925
3.231;0.281372
3.232;0.299072
3.233;0.313721
3.234;0.325012
3.235;0.332947
3.236;0.337524
3.237;0.33905
3.238;0.336914
3.239;0.331116
3.24;0.32135
3.241;0.307312
3.242;0.289307
3.243;0.267029
3.244;0.241394
3.245;0.212402
3.246;0.181274
3.247;0.14801
3.248;0.113525
3.249;0.0787354
3.25;0.0442505
3.251;0.0109863
3.252;-0.0204468
3.253;-0.0494385
3.254;-0.0756836
3.255;-0.0985718
3.256;-0.117798
3.257;-0.133362
3.258;-0.145569
3.259;-0.154419
3.26;-0.160217
3.261;-0.162964
3.262;-0.163269
3.263;-0.161743
3.264;-0.158386
3.265;-0.153809
3.266;-0.147705
3.267;-0.140991
3.268;-0.133667
3.269;-0.125427
3.27;-0.117188
3.271;-0.108948
3.272;-0.101013
3.273;-0.0933838
3.274;-0.0863647
3.275;-0.0799561
3.276;-0.0741577
3.277;-0.0683594
3.278;-0.0631714
3.279;-0.0582886
3.28;-0.0540161
3.281;-0.0497437
3.282;-0.0460815
3.283;-0.0424194
3.284;-0.0390625
3.285;-0.0360107
3.286;-0.032959
3.287;-0.0305176
3.288;-0.0280762
3.289;-0.0253296
3.29;-0.0228882
3.291;-0.0204468
3.292;-0.0186157
3.293;-0.0170898
3.294;-0.0158691
3.295;-0.0143433
3.296;-0.0131226
3.297;-0.0119019
3.298;-0.0106812
3.299;-0.00976562
3.3;-0.0088501
3.301;-0.00823975
3.302;-0.00732422
3.303;-0.00671387
3.304;-0.00610352
3.305;-0.00549316
3.306;-0.00488281
3.307;-0.00427246
3.308;-0.00366211
3.309;-0.00335693
3.31;-0.00305176
3.311;-0.00335693
3.312;-0.00366211
3.313;-0.00427246
3.314;-0.00518799
3.315;-0.00610352
3.316;-0.00701904
3.317;-0.00793457
3.318;-0.00854492
3.319;-0.00915527
3.32;-0.00946045
3.321;-0.00946045
3.322;-0.0088501
3.323;-0.00823975
3.324;-0.00701904
3.325;-0.00579834
3.326;-0.00427246
3.327;-0.00305176
3.328;-0.00152588
3.329;-0.000610352
3.33;0.000305176
3.331;0.000915527
3.332;0.00183105
3.333;0.00244141
3.334;0.00335693
3.335;0.00488281
3.336;0.00640869
3.337;0.00823975
3.338;0.00976562
3.339;0.0112915
3.34;0.012207
3.341;0.0131226
3.342;0.0137329
3.343;0.0140381
3.344;0.0137329
3.345;0.0131226
3.346;0.012207
3.347;0.0115967
3.348;0.0109863
3.349;0.0100708
3.35;0.00946045
3.351;0.00854492
3.352;0.00732422
3.353;0.00640869
3.354;0.00579834
3.355;0.00549316
3.356;0.00488281
3.357;0.00457764
3.358;0.00366211
3.359;0.00244141
3.36;0.0012207
3.361;0
3.362;-0.000610352
3.363;-0.000610352
3.364;-0.000610352
3.365;0
3.366;0.000915527
3.367;0.00213623
3.368;0.00396729
3.369;0.00579834
3.37;0.00793457
3.371;0.00976562
3.372;0.0115967
3.373;0.0134277
3.374;0.0149536
3.375;0.0167847
3.376;0.0180054
3.377;0.0192261
3.378;0.0204468
3.379;0.0216675
3.38;0.022583
3.381;0.0234985
3.382;0.0244141
3.383;0.0250244
3.384;0.0256348
3.385;0.0256348
3.386;0.0253296
3.387;0.0244141
3.388;0.0234985
3.389;0.0222778
3.39;0.0213623
3.391;0.0204468
3.392;0.0198364
3.393;0.0192261
3.394;0.0186157
3.395;0.0183105
3.396;0.0177002
3.397;0.017395
3.398;0.0170898
3.399;0.0167847
3.4;0.0167847
3.401;0.0167847
3.402;0.0170898
3.403;0.0180054
3.404;0.0192261
3.405;0.0204468
3.406;0.0216675
3.407;0.0222778
3.408;0.0228882
3.409;0.0231934
3.41;0.0231934
3.411;0.0231934
3.412;0.0231934
3.413;0.0231934
3.414;0.0231934
3.415;0.0238037
3.416;0.0241089
3.417;0.0247192
3.418;0.0250244
3.419;0.0250244
3.42;0.0250244
3.421;0.0250244
3.422;0.0250244
3.423;0.0250244
3.424;0.0256348
3.425;0.0262451
3.426;0.0268555
3.427;0.0280762
3.428;0.0289917
3.429;0.0302124
3.43;0.0314331
3.431;0.032959
3.432;0.0344849
3.433;0.0360107
3.434;0.0375366
3.435;0.0387573
3.436;0.0396729
3.437;0.039978
3.438;0.0405884
3.439;0.0405884
3.44;0.0408936
3.441;0.0408936
3.442;0.0411987
3.443;0.0415039
3.444;0.0421143
3.445;0.0427246
3.446;0.0439453
3.447;0.0454712
3.448;0.0473022
3.449;0.0491333
3.45;0.0515747
3.451;0.0537109
3.452;0.0558472
3.453;0.0579834
3.454;0.0604248
3.455;0.0631714
3.456;0.0665283
3.457;0.0698853
3.458;0.0735474
3.459;0.0772095
3.46;0.0808716
3.461;0.0842285
3.462;0.0872803
3.463;0.0900269
3.464;0.0924683
3.465;0.0946045
3.466;0.0961304
3.467;0.0976562
3.468;0.098877
3.469;0.100403
3.47;0.101624
3.471;0.102844
3.472;0.10376
3.473;0.10437
3.474;0.105286
3.475;0.105896
3.476;0.106506
3.477;0.107727
3.478;0.108643
3.479;0.109863
3.48;0.111084
3.481;0.112
3.482;0.11322
3.483;0.113831
3.484;0.114746
3.485;0.115662
3.486;0.115967
3.487;0.116577
3.488;0.117188
3.489;0.117493
3.49;0.118103
3.491;0.118408
3.492;0.118408
3.493;0.118103
3.494;0.117188
3.495;0.116272
3.496;0.114746
3.497;0.11322
3.498;0.111389
3.499;0.109558
3.5;0.107727
3.501;0.105896
3.502;0.104065
3.503;0.102539
3.504;0.100708
3.505;0.098877
3.506;0.0967407
3.507;0.0946045
3.508;0.0924683
3.509;0.090332
3.51;0.0878906
3.511;0.085144
3.512;0.0827026
3.513;0.0799561
3.514;0.0775146
3.515;0.0750732
3.516;0.0726318
3.517;0.0698853
3.518;0.0668335
3.519;0.0631714
3.52;0.0592041
3.521;0.0549316
3.522;0.0509644
3.523;0.0473022
3.524;0.0439453
3.525;0.0408936
3.526;0.038147
3.527;0.0350952
3.528;0.0323486
3.529;0.0296021
3.53;0.0268555
3.531;0.0244141
3.532;0.0222778
3.533;0.020752
3.534;0.0198364
3.535;0.0195312
3.536;0.0195312
3.537;0.0195312
3.538;0.0195312
3.539;0.0195312
3.54;0.0189209
3.541;0.0180054
3.542;0.0170898
3.543;0.0158691
3.544;0.0143433
3.545;0.0125122
3.546;0.010376
3.547;0.00793457
3.548;0.00549316
3.549;0.00305176
3.55;0.000915527
3.551;-0.000915527
3.552;-0.00274658
3.553;-0.00488281
3.554;-0.00732422
3.555;-0.00976562
3.556;-0.0119019
3.557;-0.0140381
3.558;-0.0161743
3.559;-0.0183105
3.56;-0.0201416
3.561;-0.0222778
3.562;-0.0241089
3.563;-0.0259399
3.564;-0.0271606
3.565;-0.0283813
3.566;-0.0292969
3.567;-0.0302124
3.568;-0.0308228
3.569;-0.0311279
3.57;-0.0317383
3.571;-0.032959
3.572;-0.0344849
3.573;-0.0363159
3.574;-0.0378418
3.575;-0.0393677
3.576;-0.0402832
3.577;-0.0411987
3.578;-0.0415039
3.579;-0.0418091
3.58;-0.0418091
3.581;-0.0415039
3.582;-0.0411987
3.583;-0.0405884
3.584;-0.039978
3.585;-0.0393677
3.586;-0.0384521
3.587;-0.0375366
3.588;-0.0366211
3.589;-0.0354004
3.59;-0.0338745
3.591;-0.0323486
3.592;-0.0311279
3.593;-0.0299072
3.594;-0.0286865
3.595;-0.027771
3.596;-0.0265503
3.597;-0.0256348
3.598;-0.0244141
3.599;-0.0238037
3.6;-0.0231934
3.601;-0.0228882
3.602;-0.022583
3.603;-0.0228882
3.604;-0.0231934
3.605;-0.0238037
3.606;-0.0250244
3.607;-0.0259399
3.608;-0.0268555
3.609;-0.0271606
3.61;-0.0271606
3.611;-0.0271606
3.612;-0.0268555
3.613;-0.0265503
3.614;-0.0265503
3.615;-0.0262451
3.616;-0.0259399
3.617;-0.0253296
3.618;-0.0247192
3.619;-0.0238037
3.62;-0.0231934
3.621;-0.022583
3.622;-0.0216675
3.623;-0.020752
3.624;-0.0201416
3.625;-0.0195312
3.626;-0.0192261
3.627;-0.0192261
3.628;-0.0192261
3.629;-0.0192261
3.63;-0.0195312
3.631;-0.0198364
3.632;-0.0204468
3.633;-0.0213623
3.634;-0.0222778
3.635;-0.0238037
3.636;-0.0250244
3.637;-0.0259399
3.638;-0.0265503
3.639;-0.0271606
3.64;-0.0274658
3.641;-0.0274658
3.642;-0.0271606
3.643;-0.0271606
3.644;-0.0265503
3.645;-0.0259399
3.646;-0.0250244
3.647;-0.0238037
3.648;-0.022583
3.649;-0.0213623
3.65;-0.0198364
3.651;-0.0183105
3.652;-0.0170898
3.653;-0.015564
3.654;-0.0143433
3.655;-0.0131226
3.656;-0.0119019
3.657;-0.0106812
3.658;-0.00946045
3.659;-0.00854492
3.66;-0.00793457
3.661;-0.00762939
3.662;-0.00732422
3.663;-0.00732422
3.664;-0.00762939
3.665;-0.00762939
3.666;-0.00823975
3.667;-0.00854492
3.668;-0.00915527
3.669;-0.00976562
3.67;-0.0106812
3.671;-0.0112915
3.672;-0.012207
3.673;-0.0131226
3.674;-0.0143433
3.675;-0.0158691
3.676;-0.0167847
3.677;-0.0177002
3.678;-0.0183105
3.679;-0.0189209
3.68;-0.0189209
3.681;-0.0189209
3.682;-0.0183105
3.683;-0.017395
3.684;-0.0164795
3.685;-0.015564
3.686;-0.0143433
3.687;-0.0137329
3.688;-0.0131226
3.689;-0.0128174
3.69;-0.0125122
3.691;-0.0125122
3.692;-0.012207
3.693;-0.0119019
3.694;-0.0112915
3.695;-0.010376
3.696;-0.00915527
3.697;-0.00793457
3.698;-0.00671387
3.699;-0.00610352
3.7;-0.00549316
3.701;-0.00518799
3.702;-0.00488281
3.703;-0.00457764
3.704;-0.00427246
3.705;-0.00366211
3.706;-0.00335693
3.707;-0.00305176
3.708;-0.00274658
3.709;-0.00183105
3.71;-0.000915527
3.711;-0.000305176
3.712;0.000610352
3.713;0.0012207
3.714;0.00152588
3.715;0.00152588
3.716;0.00152588
3.717;0.00152588
3.718;0.0012207
3.719;0.000915527
3.72;0.000305176
3.721;-0.000305176
3.722;-0.000610352
3.723;-0.0012207
3.724;-0.00183105
3.725;-0.00274658
3.726;-0.00366211
3.727;-0.00518799
3.728;-0.00640869
3.729;-0.00762939
3.73;-0.0088501
3.731;-0.00946045
3.732;-0.00976562
3.733;-0.0100708
3.734;-0.0100708
3.735;-0.0106812
3.736;-0.0115967
3.737;-0.0128174
3.738;-0.0143433
3.739;-0.0158691
3.74;-0.017395
3.741;-0.0186157
3.742;-0.0198364
3.743;-0.020752
3.744;-0.0213623
3.745;-0.0219727
3.746;-0.022583
3.747;-0.0231934
3.748;-0.0241089
3.749;-0.0247192
3.75;-0.0256348
3.751;-0.0262451
3.752;-0.0268555
3.753;-0.0271606
3.754;-0.0274658
3.755;-0.0274658
3.756;-0.0274658
3.757;-0.027771
3.758;-0.027771
3.759;-0.0274658
3.76;-0.0274658
3.761;-0.0271606
3.762;-0.0268555
3.763;-0.0271606
3.764;-0.0274658
3.765;-0.0280762
3.766;-0.0283813
3.767;-0.0283813
3.768;-0.0280762
3.769;-0.027771
3.77;-0.0274658
3.771;-0.0271606
3.772;-0.0274658
3.773;-0.027771
3.774;-0.0283813
3.775;-0.0292969
3.776;-0.0302124
3.777;-0.0308228
3.778;-0.0311279
3.779;-0.0314331
3.78;-0.0311279
3.781;-0.0308228
3.782;-0.0305176
3.783;-0.0305176
3.784;-0.0308228
3.785;-0.0314331
3.786;-0.0323486
3.787;-0.0332642
3.788;-0.0338745
3.789;-0.0338745
3.79;-0.0338745
3.791;-0.0338745
3.792;-0.0338745
3.793;-0.0338745
3.794;-0.0338745
3.795;-0.0341797
3.796;-0.0341797
3.797;-0.0341797
3.798;-0.0338745
3.799;-0.0332642
3.8;-0.0326538
3.801;-0.0317383
3.802;-0.0305176
3.803;-0.0296021
3.804;-0.0283813
3.805;-0.0271606
3.806;-0.0259399
3.807;-0.0247192
3.808;-0.0228882
3.809;-0.0210571
3.81;-0.0192261
3.811;-0.0170898
3.812;-0.015564
3.813;-0.0140381
3.814;-0.0128174
3.815;-0.0115967
3.816;-0.010376
3.817;-0.00946045
3.818;-0.00915527
3.819;-0.00915527
3.82;-0.00976562
3.821;-0.010376
3.822;-0.0112915
3.823;-0.012207
3.824;-0.0131226
3.825;-0.0137329
3.826;-0.0146484
3.827;-0.0149536
3.828;-0.015564
3.829;-0.015564
3.83;-0.0158691
3.831;-0.0158691
3.832;-0.0158691
3.833;-0.0158691
3.834;-0.015564
3.835;-0.0149536
3.836;-0.0143433
3.837;-0.0131226
3.838;-0.0115967
3.839;-0.00946045
3.84;-0.00732422
3.841;-0.00488281
3.842;-0.00244141
3.843;0
3.844;0.00183105
3.845;0.00366211
3.846;0.00457764
3.847;0.00518799
3.848;0.00549316
3.849;0.00518799
3.85;0.00488281
3.851;0.00427246
3.852;0.00366211
3.853;0.00305176
3.854;0.00274658
3.855;0.00274658
3.856;0.00305176
3.857;0.00366211
3.858;0.00427246
3.859;0.00518799
3.86;0.00640869
3.861;0.00793457
3.862;0.00976562
3.863;0.0115967
3.864;0.0137329
3.865;0.015564
3.866;0.017395
3.867;0.0192261
3.868;0.0204468
3.869;0.0213623
3.87;0.0216675
3.871;0.0213623
3.872;0.020752
3.873;0.0195312
3.874;0.0183105
3.875;0.0167847
3.876;0.0149536
3.877;0.0128174
3.878;0.0100708
3.879;0.00701904
3.88;0.00335693
3.881;0
3.882;-0.00335693
3.883;-0.00640869
3.884;-0.00946045
3.885;-0.012207
3.886;-0.0149536
3.887;-0.017395
3.888;-0.0195312
3.889;-0.0210571
3.89;-0.0222778
3.891;-0.0234985
3.892;-0.0241089
3.893;-0.0250244
3.894;-0.0256348
3.895;-0.0265503
3.896;-0.0274658
3.897;-0.0283813
3.898;-0.0296021
3.899;-0.0311279
3.9;-0.0326538
3.901;-0.0344849
3.902;-0.0360107
3.903;-0.0378418
3.904;-0.0396729
3.905;-0.0415039
3.906;-0.0430298
3.907;-0.0442505
3.908;-0.0457764
3.909;-0.0473022
3.91;-0.0488281
3.911;-0.050354
3.912;-0.0521851
3.913;-0.0537109
3.914;-0.0549316
3.915;-0.0558472
3.916;-0.0567627
3.917;-0.057373
3.918;-0.0579834
3.919;-0.0585938
3.92;-0.0585938
3.921;-0.0585938
3.922;-0.0585938
3.923;-0.0582886
3.924;-0.0579834
3.925;-0.0579834
3.926;-0.057373
3.927;-0.0567627
3.928;-0.0558472
3.929;-0.0543213
3.93;-0.0531006
3.931;-0.0515747
3.932;-0.050354
3.933;-0.0497437
3.934;-0.0491333
3.935;-0.0491333
3.936;-0.0494385
3.937;-0.0497437
3.938;-0.0500488
3.939;-0.0506592
3.94;-0.0506592
3.941;-0.0509644
3.942;-0.0509644
3.943;-0.0512695
3.944;-0.0518799
3.945;-0.0524902
3.946;-0.0534058
3.947;-0.0546265
3.948;-0.055542
3.949;-0.0561523
3.95;-0.0564575
3.951;-0.0558472
3.952;-0.0549316
3.953;-0.0534058
3.954;-0.0515747
3.955;-0.0494385
3.956;-0.0473022
3.957;-0.0454712
3.958;-0.0436401
3.959;-0.0421143
3.96;-0.0405884
3.961;-0.0390625
3.962;-0.0366211
3.963;-0.0338745
3.964;-0.0311279
3.965;-0.0289917
3.966;-0.0271606
3.967;-0.0265503
3.968;-0.0262451
3.969;-0.0265503
3.97;-0.0271606
3.971;-0.0283813
3.972;-0.0296021
3.973;-0.0308228
3.974;-0.0323486
3.975;-0.0341797
3.976;-0.0360107
3.977;-0.0378418
3.978;-0.039978
3.979;-0.0418091
3.98;-0.0439453
3.981;-0.0454712
3.982;-0.0466919
3.983;-0.0476074
3.984;-0.0482178
3.985;-0.0479126
3.986;-0.0476074
3.987;-0.0473022
3.988;-0.0463867
3.989;-0.0448608
3.99;-0.043335
3.991;-0.0418091
3.992;-0.0402832
3.993;-0.0390625
3.994;-0.038147
3.995;-0.0369263
3.996;-0.0360107
3.997;-0.03479
3.998;-0.0335693
3.999;-0.0320435
4;-0.0305176
4.001;-0.0283813
4.002;-0.0265503
4.003;-0.0244141
4.004;-0.0222778
4.005;-0.0201416
4.006;-0.0177002
4.007;-0.0146484
4.008;-0.0112915
4.009;-0.00701904
4.01;-0.00213623
4.011;0.00396729
4.012;0.0109863
4.013;0.0192261
4.014;0.0289917
4.015;0.0396729
4.016;0.0515747
4.017;0.0643921
4.018;0.0775146
4.019;0.0918579
4.02;0.107117
4.021;0.123901
4.022;0.142212
4.023;0.162048
4.024;0.183105
4.025;0.204773
4.026;0.22644
4.027;0.247192
4.028;0.266113
4.029;0.283203
4.03;0.297546
4.031;0.308533
4.032;0.316467
4.033;0.320435
4.034;0.320435
4.035;0.316772
4.036;0.309143
4.037;0.297241
4.038;0.281372
4.039;0.261536
4.04;0.237732
4.041;0.210876
4.042;0.180969
4.043;0.148621
4.044;0.114441
4.045;0.0796509
4.046;0.0448608
4.047;0.0106812
4.048;-0.0216675
4.049;-0.0518799
4.05;-0.0793457
4.051;-0.103455
4.052;-0.123901
4.053;-0.140686
4.054;-0.153503
4.055;-0.162354
4.056;-0.167847
4.057;-0.169678
4.058;-0.168762
4.059;-0.1651
4.06;-0.159607
4.061;-0.152283
4.062;-0.143433
4.063;-0.134277
4.064;-0.124512
4.065;-0.115051
4.066;-0.105896
4.067;-0.0973511
4.068;-0.0891113
4.069;-0.0814819
4.07;-0.0747681
4.071;-0.0689697
4.072;-0.0640869
4.073;-0.0604248
4.074;-0.0576782
4.075;-0.055542
4.076;-0.0534058
4.077;-0.0515747
4.078;-0.0494385
4.079;-0.0473022
4.08;-0.0448608
4.081;-0.0421143
4.082;-0.0396729
4.083;-0.0372314
4.084;-0.0354004
4.085;-0.0341797
4.086;-0.0335693
4.087;-0.0332642
4.088;-0.032959
4.089;-0.0326538
4.09;-0.0326538
4.091;-0.0326538
4.092;-0.032959
4.093;-0.0326538
4.094;-0.0326538
4.095;-0.0323486
4.096;-0.0320435
4.097;-0.0320435
4.098;-0.0320435
4.099;-0.0323486
4.1;-0.0326538
4.101;-0.0326538
4.102;-0.0326538
4.103;-0.0323486
4.104;-0.0314331
4.105;-0.0302124
4.106;-0.0283813
4.107;-0.0265503
4.108;-0.0241089
4.109;-0.0213623
4.11;-0.0189209
4.111;-0.0164795
4.112;-0.0143433
4.113;-0.0131226
4.114;-0.0125122
4.115;-0.012207
4.116;-0.0119019
4.117;-0.0119019
4.118;-0.012207
4.119;-0.0128174
4.12;-0.0134277
4.121;-0.0143433
4.122;-0.0149536
4.123;-0.015564
4.124;-0.0164795
4.125;-0.0177002
4.126;-0.0192261
4.127;-0.0210571
4.128;-0.022583
4.129;-0.0244141
4.13;-0.0259399
4.131;-0.0271606
4.132;-0.0280762
4.133;-0.0286865
4.134;-0.0286865
4.135;-0.0286865
4.136;-0.0283813
4.137;-0.0280762
4.138;-0.0280762
4.139;-0.027771
4.14;-0.0271606
4.141;-0.0265503
4.142;-0.0256348
4.143;-0.0250244
4.144;-0.0241089
4.145;-0.0234985
4.146;-0.0228882
4.147;-0.0222778
4.148;-0.0216675
4.149;-0.0213623
4.15;-0.020752
4.151;-0.0201416
4.152;-0.0195312
4.153;-0.0189209
4.154;-0.0183105
4.155;-0.0180054
4.156;-0.0183105
4.157;-0.0186157
4.158;-0.0192261
4.159;-0.0201416
4.16;-0.0210571
4.161;-0.0219727
4.162;-0.022583
4.163;-0.0228882
4.164;-0.0231934
4.165;-0.0228882
4.166;-0.0228882
4.167;-0.0231934
4.168;-0.0234985
4.169;-0.0241089
4.17;-0.0250244
4.171;-0.0256348
4.172;-0.0256348
4.173;-0.0256348
4.174;-0.0250244
4.175;-0.0241089
4.176;-0.0228882
4.177;-0.0213623
4.178;-0.0195312
4.179;-0.0177002
4.18;-0.0158691
4.181;-0.0137329
4.182;-0.0115967
4.183;-0.00946045
4.184;-0.00762939
4.185;-0.00579834
4.186;-0.00396729
4.187;-0.00244141
4.188;-0.0012207
4.189;-0.000305176
4.19;0.000305176
4.191;0.000610352
4.192;0.000915527
4.193;0.00152588
4.194;0.00183105
4.195;0.00213623
4.196;0.00274658
4.197;0.00305176
4.198;0.00305176
4.199;0.00335693
4.2;0.00396729
4.201;0.00457764
4.202;0.00518799
4.203;0.00610352
4.204;0.00671387
4.205;0.00762939
4.206;0.00793457
4.207;0.00854492
4.208;0.0088501
4.209;0.00915527
4.21;0.00976562
4.211;0.010376
4.212;0.0112915
4.213;0.0119019
4.214;0.0125122
4.215;0.0128174
4.216;0.0128174
4.217;0.012207
4.218;0.0115967
4.219;0.0109863
4.22;0.010376
4.221;0.0100708
4.222;0.0100708
4.223;0.010376
4.224;0.0106812
4.225;0.0109863
4.226;0.0109863
4.227;0.0112915
4.228;0.0115967
4.229;0.012207
4.23;0.0131226
4.231;0.0146484
4.232;0.0161743
4.233;0.0180054
4.234;0.0198364
4.235;0.0216675
4.236;0.0234985
4.237;0.0256348
4.238;0.027771
4.239;0.0296021
4.24;0.0317383
4.241;0.0341797
4.242;0.0363159
4.243;0.0387573
4.244;0.0411987
4.245;0.0436401
4.246;0.0463867
4.247;0.0488281
4.248;0.0515747
4.249;0.0543213
4.25;0.0570679
4.251;0.0604248
4.252;0.0640869
4.253;0.067749
4.254;0.0714111
4.255;0.0750732
4.256;0.0778198
4.257;0.0802612
4.258;0.0817871
4.259;0.0830078
4.26;0.0839233
4.261;0.0845337
4.262;0.085144
4.263;0.0860596
4.264;0.0863647
4.265;0.0863647
4.266;0.0860596
4.267;0.0854492
4.268;0.085144
4.269;0.0845337
4.27;0.0842285
4.271;0.0836182
4.272;0.0830078
4.273;0.0817871
4.274;0.0808716
4.275;0.0796509
4.276;0.0784302
4.277;0.0775146
4.278;0.0772095
4.279;0.0769043
4.28;0.0775146
4.281;0.0784302
4.282;0.0796509
4.283;0.0811768
4.284;0.0827026
4.285;0.0842285
4.286;0.0854492
4.287;0.0866699
4.288;0.0875854
4.289;0.0881958
4.29;0.088501
4.291;0.088501
4.292;0.0881958
4.293;0.0878906
4.294;0.0875854
4.295;0.0869751
4.296;0.0860596
4.297;0.085144
4.298;0.0836182
4.299;0.0814819
4.3;0.0793457
4.301;0.0765991
4.302;0.0738525
4.303;0.071106
4.304;0.0683594
4.305;0.0653076
4.306;0.0619507
4.307;0.0585938
4.308;0.0546265
4.309;0.0506592
4.31;0.0466919
4.311;0.0424194
4.312;0.0387573
4.313;0.0357056
4.314;0.0335693
4.315;0.0317383
4.316;0.0302124
4.317;0.0283813
4.318;0.0265503
4.319;0.0244141
4.32;0.0222778
4.321;0.0204468
4.322;0.0186157
4.323;0.0170898
4.324;0.0152588
4.325;0.0137329
4.326;0.0119019
4.327;0.0100708
4.328;0.00823975
4.329;0.00610352
4.33;0.00457764
4.331;0.00274658
4.332;0.0012207
4.333;-0.000305176
4.334;-0.00213623
4.335;-0.00427246
4.336;-0.00640869
4.337;-0.00915527
4.338;-0.0119019
4.339;-0.0149536
4.34;-0.0177002
4.341;-0.0201416
4.342;-0.022583
4.343;-0.0247192
4.344;-0.0265503
4.345;-0.0283813
4.346;-0.0302124
4.347;-0.0320435
4.348;-0.0338745
4.349;-0.0357056
4.35;-0.0372314
4.351;-0.0387573
4.352;-0.0405884
4.353;-0.0430298
4.354;-0.0454712
4.355;-0.0482178
4.356;-0.0509644
4.357;-0.0534058
4.358;-0.0561523
4.359;-0.0585938
4.36;-0.0610352
4.361;-0.0628662
4.362;-0.0646973
4.363;-0.0662231
4.364;-0.0674438
4.365;-0.0686646
4.366;-0.0698853
4.367;-0.071106
4.368;-0.0720215
4.369;-0.0726318
4.37;-0.0732422
4.371;-0.0735474
4.372;-0.0738525
4.373;-0.0738525
4.374;-0.0741577
4.375;-0.0741577
4.376;-0.0744629
4.377;-0.0747681
4.378;-0.0750732
4.379;-0.0756836
4.38;-0.0759888
4.381;-0.0762939
4.382;-0.0769043
4.383;-0.0772095
4.384;-0.0778198
4.385;-0.078125
4.386;-0.0784302
4.387;-0.0787354
4.388;-0.0787354
4.389;-0.078125
4.39;-0.0778198
4.391;-0.0775146
4.392;-0.0775146
4.393;-0.0772095
4.394;-0.0769043
4.395;-0.0759888
4.396;-0.0747681
4.397;-0.0732422
4.398;-0.071106
4.399;-0.0695801
4.4;-0.0680542
4.401;-0.0668335
4.402;-0.065918
4.403;-0.0653076
4.404;-0.0646973
4.405;-0.0643921
4.406;-0.0643921
4.407;-0.0646973
4.408;-0.0653076
4.409;-0.0662231
4.41;-0.0671387
4.411;-0.067749
4.412;-0.0686646
4.413;-0.0692749
4.414;-0.0701904
4.415;-0.0708008
4.416;-0.0717163
4.417;-0.0726318
4.418;-0.0732422
4.419;-0.0741577
4.42;-0.0747681
4.421;-0.0756836
4.422;-0.0762939
4.423;-0.0762939
4.424;-0.0759888
4.425;-0.0756836
4.426;-0.0747681
4.427;-0.0738525
4.428;-0.0726318
4.429;-0.0717163
4.43;-0.0704956
4.431;-0.0692749
4.432;-0.0680542
4.433;-0.0668335
4.434;-0.065918
4.435;-0.0650024
4.436;-0.0643921
4.437;-0.0634766
4.438;-0.062561
4.439;-0.0622559
4.44;-0.0619507
4.441;-0.0619507
4.442;-0.0622559
4.443;-0.062561
4.444;-0.0631714
4.445;-0.0637817
4.446;-0.0643921
4.447;-0.0650024
4.448;-0.0653076
4.449;-0.065918
4.45;-0.0665283
4.451;-0.0668335
4.452;-0.0674438
4.453;-0.067749
4.454;-0.067749
4.455;-0.067749
4.456;-0.0671387
4.457;-0.0662231
4.458;-0.0650024
4.459;-0.0634766
4.46;-0.0619507
4.461;-0.0601196
4.462;-0.0582886
4.463;-0.0564575
4.464;-0.0543213
4.465;-0.0518799
4.466;-0.0494385
4.467;-0.0469971
4.468;-0.0442505
4.469;-0.0418091
4.47;-0.0393677
4.471;-0.0369263
4.472;-0.0344849
4.473;-0.0323486
4.474;-0.0305176
4.475;-0.0289917
4.476;-0.027771
4.477;-0.0271606
4.478;-0.0265503
4.479;-0.0265503
4.48;-0.0262451
4.481;-0.0262451
4.482;-0.0259399
4.483;-0.0259399
4.484;-0.0259399
4.485;-0.0262451
4.486;-0.0268555
4.487;-0.027771
4.488;-0.0286865
4.489;-0.0299072
4.49;-0.0308228
4.491;-0.0314331
4.492;-0.0320435
4.493;-0.0326538
4.494;-0.0332642
4.495;-0.0338745
4.496;-0.0344849
4.497;-0.0350952
4.498;-0.0360107
4.499;-0.0369263
4.5;-0.038147
4.501;-0.0393677
4.502;-0.0405884
4.503;-0.0418091
4.504;-0.0430298
4.505;-0.0439453
4.506;-0.0448608
4.507;-0.0457764
4.508;-0.0463867
4.509;-0.0466919
4.51;-0.0469971
4.511;-0.0473022
4.512;-0.0473022
4.513;-0.0476074
4.514;-0.0479126
4.515;-0.0479126
4.516;-0.0476074
4.517;-0.0473022
4.518;-0.0469971
4.519;-0.0466919
4.52;-0.0463867
4.521;-0.0460815
4.522;-0.0460815
4.523;-0.0460815
4.524;-0.0463867
4.525;-0.0466919
4.526;-0.0476074
4.527;-0.0485229
4.528;-0.0494385
4.529;-0.0506592
4.53;-0.0515747
4.531;-0.0521851
4.532;-0.0527954
4.533;-0.0537109
4.534;-0.0549316
4.535;-0.0561523
4.536;-0.057373
4.537;-0.0585938
4.538;-0.0592041
4.539;-0.0595093
4.54;-0.0592041
4.541;-0.0585938
4.542;-0.0579834
4.543;-0.0576782
4.544;-0.0570679
4.545;-0.0564575
4.546;-0.0561523
4.547;-0.0561523
4.548;-0.0561523
4.549;-0.0561523
4.55;-0.0561523
4.551;-0.0561523
4.552;-0.0561523
4.553;-0.0561523
4.554;-0.0558472
4.555;-0.055542
4.556;-0.055542
4.557;-0.0552368
4.558;-0.0552368
4.559;-0.0549316
4.56;-0.0549316
4.561;-0.0546265
4.562;-0.0543213
4.563;-0.0537109
4.564;-0.0531006
4.565;-0.0524902
4.566;-0.0518799
4.567;-0.0512695
4.568;-0.0509644
4.569;-0.0509644
4.57;-0.0506592
4.571;-0.050354
4.572;-0.0497437
4.573;-0.0485229
4.574;-0.0469971
4.575;-0.045166
4.576;-0.0430298
4.577;-0.0411987
4.578;-0.0393677
4.579;-0.0378418
4.58;-0.0366211
4.581;-0.0357056
4.582;-0.0350952
4.583;-0.03479
4.584;-0.0341797
4.585;-0.0335693
4.586;-0.0332642
4.587;-0.032959
4.588;-0.032959
4.589;-0.032959
4.59;-0.0332642
4.591;-0.0332642
4.592;-0.0335693
4.593;-0.0338745
4.594;-0.0341797
4.595;-0.03479
4.596;-0.0357056
4.597;-0.0369263
4.598;-0.0384521
4.599;-0.039978
4.6;-0.0415039
4.601;-0.0424194
4.602;-0.043335
4.603;-0.0439453
4.604;-0.0442505
4.605;-0.0445557
4.606;-0.0448608
4.607;-0.0445557
4.608;-0.0445557
4.609;-0.0442505
4.61;-0.0442505
4.611;-0.0442505
4.612;-0.0445557
4.613;-0.045166
4.614;-0.0457764
4.615;-0.0460815
4.616;-0.0460815
4.617;-0.0460815
4.618;-0.0460815
4.619;-0.0457764
4.62;-0.045166
4.621;-0.0448608
4.622;-0.0448608
4.623;-0.0445557
4.624;-0.0442505
4.625;-0.0436401
4.626;-0.0427246
4.627;-0.0411987
4.628;-0.0396729
4.629;-0.0375366
4.63;-0.0354004
4.631;-0.0332642
4.632;-0.0314331
4.633;-0.0302124
4.634;-0.0292969
4.635;-0.0286865
4.636;-0.0280762
4.637;-0.027771
4.638;-0.0274658
4.639;-0.0268555
4.64;-0.0265503
4.641;-0.0262451
4.642;-0.0259399
4.643;-0.0256348
4.644;-0.0256348
4.645;-0.0253296
4.646;-0.0256348
4.647;-0.0256348
4.648;-0.0259399
4.649;-0.0262451
4.65;-0.0265503
4.651;-0.0268555
4.652;-0.0271606
4.653;-0.0274658
4.654;-0.0274658
4.655;-0.0271606
4.656;-0.0265503
4.657;-0.0256348
4.658;-0.0244141
4.659;-0.0231934
4.66;-0.0216675
4.661;-0.0198364
4.662;-0.0180054
4.663;-0.0158691
4.664;-0.0134277
4.665;-0.0106812
4.666;-0.00823975
4.667;-0.00579834
4.668;-0.00335693
4.669;-0.0012207
4.67;0.000915527
4.671;0.00335693
4.672;0.00518799
4.673;0.00732422
4.674;0.00915527
4.675;0.0109863
4.676;0.0128174
4.677;0.0146484
4.678;0.0161743
4.679;0.017395
4.68;0.0186157
4.681;0.0192261
4.682;0.0192261
4.683;0.0189209
4.684;0.0180054
4.685;0.0167847
4.686;0.0152588
4.687;0.0140381
4.688;0.0125122
4.689;0.0109863
4.69;0.00915527
4.691;0.00732422
4.692;0.00549316
4.693;0.00335693
4.694;0.0012207
4.695;-0.000915527
4.696;-0.00274658
4.697;-0.00427246
4.698;-0.00610352
4.699;-0.00793457
4.7;-0.010376
4.701;-0.0128174
4.702;-0.0152588
4.703;-0.0177002
4.704;-0.0201416
4.705;-0.0219727
4.706;-0.0238037
4.707;-0.0250244
4.708;-0.0265503
4.709;-0.027771
4.71;-0.0292969
4.711;-0.0308228
4.712;-0.0323486
4.713;-0.0341797
4.714;-0.0363159
4.715;-0.0384521
4.716;-0.0402832
4.717;-0.0421143
4.718;-0.0436401
4.719;-0.045166
4.72;-0.0466919
4.721;-0.0485229
4.722;-0.0500488
4.723;-0.0518799
4.724;-0.0531006
4.725;-0.0546265
4.726;-0.055542
4.727;-0.0564575
4.728;-0.0567627
4.729;-0.0564575
4.73;-0.0558472
4.731;-0.0552368
4.732;-0.0546265
4.733;-0.0543213
4.734;-0.0543213
4.735;-0.0543213
4.736;-0.0543213
4.737;-0.0549316
4.738;-0.0552368
4.739;-0.0561523
4.74;-0.0570679
4.741;-0.0579834
4.742;-0.0592041
4.743;-0.0610352
4.744;-0.062561
4.745;-0.0643921
4.746;-0.065918
4.747;-0.0674438
4.748;-0.0686646
4.749;-0.0698853
4.75;-0.071106
4.751;-0.0723267
4.752;-0.0735474
4.753;-0.0744629
4.754;-0.0750732
4.755;-0.0750732
4.756;-0.0744629
4.757;-0.0735474
4.758;-0.0717163
4.759;-0.0695801
4.76;-0.0668335
4.761;-0.0637817
4.762;-0.06073
4.763;-0.0579834
4.764;-0.0552368
4.765;-0.0527954
4.766;-0.0506592
4.767;-0.0485229
4.768;-0.0460815
4.769;-0.0439453
4.77;-0.0418091
4.771;-0.039978
4.772;-0.0387573
4.773;-0.0372314
4.774;-0.0360107
4.775;-0.0344849
4.776;-0.0332642
4.777;-0.0320435
4.778;-0.0311279
4.779;-0.0305176
4.78;-0.0302124
4.781;-0.0302124
4.782;-0.0305176
4.783;-0.0311279
4.784;-0.0317383
4.785;-0.032959
4.786;-0.0341797
4.787;-0.0354004
4.788;-0.0369263
4.789;-0.038147
4.79;-0.0390625
4.791;-0.0402832
4.792;-0.0415039
4.793;-0.0430298
4.794;-0.0448608
4.795;-0.0469971
4.796;-0.0491333
4.797;-0.0512695
4.798;-0.0534058
4.799;-0.0549316
4.8;-0.0561523
4.801;-0.0561523
4.802;-0.0558472
4.803;-0.0549316
4.804;-0.0534058
4.805;-0.0521851
4.806;-0.0506592
4.807;-0.0491333
4.808;-0.0476074
4.809;-0.0463867
4.81;-0.0448608
4.811;-0.043335
4.812;-0.0415039
4.813;-0.0390625
4.814;-0.0363159
4.815;-0.032959
4.816;-0.0299072
4.817;-0.0265503
4.818;-0.0238037
4.819;-0.0216675
4.82;-0.0198364
4.821;-0.0186157
4.822;-0.0170898
4.823;-0.0158691
4.824;-0.0140381
4.825;-0.0119019
4.826;-0.00915527
4.827;-0.00610352
4.828;-0.00274658
4.829;0.00152588
4.83;0.00640869
4.831;0.012207
4.832;0.0186157
4.833;0.0262451
4.834;0.03479
4.835;0.0445557
4.836;0.055542
4.837;0.0680542
4.838;0.0817871
4.839;0.0967407
4.84;0.11322
4.841;0.131531
4.842;0.151367
4.843;0.172729
4.844;0.194702
4.845;0.21759
4.846;0.240173
4.847;0.262146
4.848;0.282288
4.849;0.300293
4.85;0.315552
4.851;0.327454
4.852;0.335999
4.853;0.340881
4.854;0.342102
4.855;0.339661
4.856;0.332947
4.857;0.322266
4.858;0.307007
4.859;0.28717
4.86;0.263367
4.861;0.235291
4.862;0.204468
4.863;0.170898
4.864;0.136108
4.865;0.100403
4.866;0.0646973
4.867;0.0292969
4.868;-0.00488281
4.869;-0.0372314
4.87;-0.0671387
4.871;-0.0939941
4.872;-0.117493
4.873;-0.137329
4.874;-0.153503
4.875;-0.166016
4.876;-0.174561
4.877;-0.179749
4.878;-0.18158
4.879;-0.180664
4.88;-0.177612
4.881;-0.172729
4.882;-0.166321
4.883;-0.158386
4.884;-0.150146
4.885;-0.140991
4.886;-0.131836
4.887;-0.122681
4.888;-0.113831
4.889;-0.105286
4.89;-0.0973511
4.891;-0.0900269
4.892;-0.0836182
4.893;-0.078125
4.894;-0.0732422
4.895;-0.0689697
4.896;-0.0650024
4.897;-0.0610352
4.898;-0.057373
4.899;-0.0537109
4.9;-0.050354
4.901;-0.0473022
4.902;-0.0445557
4.903;-0.0424194
4.904;-0.0405884
4.905;-0.0390625
4.906;-0.0378418
4.907;-0.0366211
4.908;-0.0357056
4.909;-0.0350952
4.91;-0.0344849
4.911;-0.0338745
4.912;-0.0335693
4.913;-0.0332642
4.914;-0.032959
4.915;-0.0323486
4.916;-0.0314331
4.917;-0.0308228
4.918;-0.0299072
4.919;-0.0292969
4.92;-0.0286865
4.921;-0.027771
4.922;-0.0268555
4.923;-0.0259399
4.924;-0.0244141
4.925;-0.0228882
4.926;-0.0213623
4.927;-0.0198364
4.928;-0.0183105
4.929;-0.0170898
4.93;-0.0158691
4.931;-0.0149536
4.932;-0.0137329
4.933;-0.0128174
4.934;-0.0119019
4.935;-0.0115967
4.936;-0.0112915
4.937;-0.0109863
4.938;-0.0109863
4.939;-0.0109863
4.94;-0.0109863
4.941;-0.0109863
4.942;-0.0109863
4.943;-0.0109863
4.944;-0.010376
4.945;-0.00946045
4.946;-0.00823975
4.947;-0.00732422
4.948;-0.00610352
4.949;-0.00549316
4.95;-0.00518799
4.951;-0.00457764
4.952;-0.00457764
4.953;-0.00427246
4.954;-0.00396729
4.955;-0.00396729
4.956;-0.00396729
4.957;-0.00396729
4.958;-0.00457764
4.959;-0.00549316
4.96;-0.00640869
4.961;-0.00732422
4.962;-0.00854492
4.963;-0.00946045
4.964;-0.0106812
4.965;-0.0119019
4.966;-0.0128174
4.967;-0.0134277
4.968;-0.0140381
4.969;-0.0143433
4.97;-0.0146484
4.971;-0.0152588
4.972;-0.0161743
4.973;-0.0170898
4.974;-0.0180054
4.975;-0.0186157
4.976;-0.0186157
4.977;-0.0183105
4.978;-0.0177002
4.979;-0.017395
4.98;-0.0167847
4.981;-0.0164795
4.982;-0.0158691
4.983;-0.015564
4.984;-0.0149536
4.985;-0.0146484
4.986;-0.0143433
4.987;-0.0140381
4.988;-0.0140381
4.989;-0.0140381
4.99;-0.0140381
4.991;-0.0134277
4.992;-0.0131226
4.993;-0.0125122
4.994;-0.0115967
4.995;-0.0106812
4.996;-0.00976562
4.997;-0.00854492
4.998;-0.00762939
4.999;-0.00701904
5;-0.00671387
5.001;-0.00610352
5.002;-0.00518799
5.003;-0.00457764
5.004;-0.00396729
5.005;-0.00366211
5.006;-0.00396729
5.007;-0.00457764
5.008;-0.00488281
5.009;-0.00488281
5.01;-0.00427246
5.011;-0.00366211
5.012;-0.00274658
5.013;-0.00213623
5.014;-0.00152588
5.015;-0.000915527
5.016;-0.000305176
5.017;0.000305176
5.018;0.0012207
5.019;0.00213623
5.02;0.00366211
5.021;0.00518799
5.022;0.00701904
5.023;0.00915527
5.024;0.0112915
5.025;0.0140381
5.026;0.0164795
5.027;0.0189209
5.028;0.020752
5.029;0.022583
5.03;0.0241089
5.031;0.0250244
5.032;0.0259399
5.033;0.0268555
5.034;0.0280762
5.035;0.0296021
5.036;0.0308228
5.037;0.0314331
5.038;0.0314331
5.039;0.0308228
5.04;0.0299072
5.041;0.0292969
5.042;0.0286865
5.043;0.0289917
5.044;0.0299072
5.045;0.0314331
5.046;0.0335693
5.047;0.0360107
5.048;0.038147
5.049;0.0405884
5.05;0.0430298
5.051;0.045166
5.052;0.0473022
5.053;0.0497437
5.054;0.0521851
5.055;0.0546265
5.056;0.057373
5.057;0.0601196
5.058;0.0631714
5.059;0.065918
5.06;0.0686646
5.061;0.071106
5.062;0.0735474
5.063;0.0756836
5.064;0.0775146
5.065;0.0790405
5.066;0.0799561
5.067;0.0805664
5.068;0.0811768
5.069;0.0814819
5.07;0.0814819
5.071;0.0817871
5.072;0.0817871
5.073;0.0817871
5.074;0.0820923
5.075;0.0820923
5.076;0.0823975
5.077;0.0827026
5.078;0.083313
5.079;0.0842285
5.08;0.0860596
5.081;0.0878906
5.082;0.090332
5.083;0.0924683
5.084;0.0939941
5.085;0.09552
5.086;0.0964355
5.087;0.0970459
5.088;0.0979614
5.089;0.0985718
5.09;0.0997925
5.091;0.101318
5.092;0.102844
5.093;0.104675
5.094;0.106201
5.095;0.108032
5.096;0.109558
5.097;0.111084
5.098;0.112305
5.099;0.11322
5.1;0.113831
5.101;0.114441
5.102;0.114746
5.103;0.115051
5.104;0.115051
5.105;0.115051
5.106;0.115051
5.107;0.115051
5.108;0.115356
5.109;0.115356
5.11;0.115662
5.111;0.115967
5.112;0.115662
5.113;0.115356
5.114;0.114746
5.115;0.114136
5.116;0.112915
5.117;0.111694
5.118;0.110168
5.119;0.108337
5.12;0.106506
5.121;0.10437
5.122;0.101929
5.123;0.0994873
5.124;0.0970459
5.125;0.0942993
5.126;0.0912476
5.127;0.088501
5.128;0.0860596
5.129;0.0836182
5.13;0.0814819
5.131;0.0793457
5.132;0.0772095
5.133;0.0750732
5.134;0.0732422
5.135;0.0717163
5.136;0.0701904
5.137;0.0686646
5.138;0.0668335
5.139;0.0653076
5.14;0.0634766
5.141;0.0616455
5.142;0.0601196
5.143;0.0582886
5.144;0.0564575
5.145;0.0543213
5.146;0.0518799
5.147;0.0488281
5.148;0.045166
5.149;0.0411987
5.15;0.0369263
5.151;0.0326538
5.152;0.0280762
5.153;0.0231934
5.154;0.0183105
5.155;0.0131226
5.156;0.00762939
5.157;0.00244141
5.158;-0.00305176
5.159;-0.00823975
5.16;-0.0131226
5.161;-0.017395
5.162;-0.0210571
5.163;-0.0238037
5.164;-0.0262451
5.165;-0.0283813
5.166;-0.0302124
5.167;-0.0317383
5.168;-0.032959
5.169;-0.0338745
5.17;-0.0344849
5.171;-0.03479
5.172;-0.03479
5.173;-0.03479
5.174;-0.03479
5.175;-0.0344849
5.176;-0.03479
5.177;-0.03479
5.178;-0.0350952
5.179;-0.0357056
5.18;-0.0363159
5.181;-0.0372314
5.182;-0.038147
5.183;-0.0387573
5.184;-0.0396729
5.185;-0.0402832
5.186;-0.0411987
5.187;-0.0421143
5.188;-0.0430298
5.189;-0.0436401
5.19;-0.0439453
5.191;-0.0439453
5.192;-0.0436401
5.193;-0.043335
5.194;-0.0427246
5.195;-0.0424194
5.196;-0.0421143
5.197;-0.0421143
5.198;-0.0421143
5.199;-0.0421143
5.2;-0.0421143
5.201;-0.0421143
5.202;-0.0418091
5.203;-0.0418091
5.204;-0.0415039
5.205;-0.0415039
5.206;-0.0415039
5.207;-0.0418091
5.208;-0.0421143
5.209;-0.0424194
5.21;-0.0427246
5.211;-0.0430298
5.212;-0.0436401
5.213;-0.0439453
5.214;-0.0445557
5.215;-0.0445557
5.216;-0.0445557
5.217;-0.0439453
5.218;-0.0430298
5.219;-0.0418091
5.22;-0.0408936
5.221;-0.039978
5.222;-0.0393677
5.223;-0.0387573
5.224;-0.0384521
5.225;-0.0378418
5.226;-0.0369263
5.227;-0.0363159
5.228;-0.0354004
5.229;-0.0341797
5.23;-0.032959
5.231;-0.0317383
5.232;-0.0305176
5.233;-0.0292969
5.234;-0.0283813
5.235;-0.027771
5.236;-0.0274658
5.237;-0.0268555
5.238;-0.0268555
5.239;-0.0265503
5.24;-0.0262451
5.241;-0.0259399
5.242;-0.0256348
5.243;-0.0250244
5.244;-0.0247192
5.245;-0.0247192
5.246;-0.0247192
5.247;-0.0247192
5.248;-0.0247192
5.249;-0.0247192
5.25;-0.0244141
5.251;-0.0241089
5.252;-0.0238037
5.253;-0.0231934
5.254;-0.0228882
5.255;-0.0228882
5.256;-0.0228882
5.257;-0.022583
5.258;-0.0222778
5.259;-0.0219727
5.26;-0.0219727
5.261;-0.0219727
5.262;-0.0219727
5.263;-0.0219727
5.264;-0.0219727
5.265;-0.0213623
5.266;-0.020752
5.267;-0.0201416
5.268;-0.0195312
5.269;-0.0189209
5.27;-0.0180054
5.271;-0.017395
5.272;-0.0170898
5.273;-0.0167847
5.274;-0.0170898
5.275;-0.0177002
5.276;-0.0183105
5.277;-0.0192261
5.278;-0.0201416
5.279;-0.020752
5.28;-0.0213623
5.281;-0.0213623
5.282;-0.0210571
5.283;-0.0204468
5.284;-0.0195312
5.285;-0.0183105
5.286;-0.0177002
5.287;-0.0170898
5.288;-0.017395
5.289;-0.0180054
5.29;-0.0189209
5.291;-0.0201416
5.292;-0.0216675
5.293;-0.0228882
5.294;-0.0238037
5.295;-0.0244141
5.296;-0.0244141
5.297;-0.0241089
5.298;-0.0238037
5.299;-0.0231934
5.3;-0.0228882
5.301;-0.0228882
5.302;-0.022583
5.303;-0.022583
5.304;-0.0222778
5.305;-0.0222778
5.306;-0.0222778
5.307;-0.0222778
5.308;-0.0219727
5.309;-0.0216675
5.31;-0.0210571
5.311;-0.0204468
5.312;-0.0198364
5.313;-0.0198364
5.314;-0.0198364
5.315;-0.0198364
5.316;-0.0198364
5.317;-0.0195312
5.318;-0.0192261
5.319;-0.0189209
5.32;-0.0189209
5.321;-0.0189209
5.322;-0.0189209
5.323;-0.0189209
5.324;-0.0192261
5.325;-0.0195312
5.326;-0.0201416
5.327;-0.0204468
5.328;-0.0204468
5.329;-0.0198364
5.33;-0.0192261
5.331;-0.0180054
5.332;-0.0167847
5.333;-0.0152588
5.334;-0.0140381
5.335;-0.0125122
5.336;-0.0109863
5.337;-0.00946045
5.338;-0.00823975
5.339;-0.00701904
5.34;-0.00579834
5.341;-0.00457764
5.342;-0.00366211
5.343;-0.00305176
5.344;-0.00274658
5.345;-0.00244141
5.346;-0.00274658
5.347;-0.00366211
5.348;-0.00457764
5.349;-0.00549316
5.35;-0.00640869
5.351;-0.00732422
5.352;-0.00793457
5.353;-0.00854492
5.354;-0.00915527
5.355;-0.00976562
5.356;-0.0109863
5.357;-0.0125122
5.358;-0.0143433
5.359;-0.0161743
5.36;-0.0180054
5.361;-0.0195312
5.362;-0.020752
5.363;-0.0213623
5.364;-0.0213623
5.365;-0.0210571
5.366;-0.0204468
5.367;-0.0198364
5.368;-0.0192261
5.369;-0.0186157
5.37;-0.0183105
5.371;-0.0177002
5.372;-0.0177002
5.373;-0.0177002
5.374;-0.0177002
5.375;-0.0180054
5.376;-0.0183105
5.377;-0.0186157
5.378;-0.0186157
5.379;-0.0183105
5.38;-0.0180054
5.381;-0.0177002
5.382;-0.0177002
5.383;-0.017395
5.384;-0.0167847
5.385;-0.0164795
5.386;-0.0161743
5.387;-0.015564
5.388;-0.0149536
5.389;-0.0140381
5.39;-0.0128174
5.391;-0.0112915
5.392;-0.00946045
5.393;-0.00793457
5.394;-0.00640869
5.395;-0.00488281
5.396;-0.00366211
5.397;-0.00274658
5.398;-0.00183105
5.399;-0.0012207
5.4;-0.0012207
5.401;-0.0012207
5.402;-0.00152588
5.403;-0.00274658
5.404;-0.00427246
5.405;-0.00640869
5.406;-0.00915527
5.407;-0.0115967
5.408;-0.0140381
5.409;-0.0158691
5.41;-0.0167847
5.411;-0.0170898
5.412;-0.0167847
5.413;-0.0161743
5.414;-0.0152588
5.415;-0.0143433
5.416;-0.0134277
5.417;-0.012207
5.418;-0.0106812
5.419;-0.00915527
5.42;-0.00701904
5.421;-0.00457764
5.422;-0.00183105
5.423;0.0012207
5.424;0.00396729
5.425;0.00671387
5.426;0.0088501
5.427;0.0100708
5.428;0.0106812
5.429;0.0109863
5.43;0.010376
5.431;0.00976562
5.432;0.00854492
5.433;0.00732422
5.434;0.00640869
5.435;0.00549316
5.436;0.00488281
5.437;0.00457764
5.438;0.00427246
5.439;0.00396729
5.44;0.00366211
5.441;0.00335693
5.442;0.00274658
5.443;0.00183105
5.444;0.000915527
5.445;0
5.446;-0.000915527
5.447;-0.00183105
5.448;-0.00274658
5.449;-0.00335693
5.45;-0.00457764
5.451;-0.00610352
5.452;-0.00793457
5.453;-0.0100708
5.454;-0.012207
5.455;-0.0143433
5.456;-0.0164795
5.457;-0.0186157
5.458;-0.0204468
5.459;-0.0219727
5.46;-0.0238037
5.461;-0.0250244
5.462;-0.0259399
5.463;-0.0262451
5.464;-0.0259399
5.465;-0.0250244
5.466;-0.0241089
5.467;-0.022583
5.468;-0.0210571
5.469;-0.0195312
5.47;-0.0183105
5.471;-0.017395
5.472;-0.0170898
5.473;-0.0167847
5.474;-0.0161743
5.475;-0.015564
5.476;-0.0146484
5.477;-0.0137329
5.478;-0.0131226
5.479;-0.0131226
5.48;-0.0137329
5.481;-0.0146484
5.482;-0.015564
5.483;-0.0164795
5.484;-0.0170898
5.485;-0.0177002
5.486;-0.0180054
5.487;-0.0180054
5.488;-0.0180054
5.489;-0.017395
5.49;-0.0164795
5.491;-0.015564
5.492;-0.0140381
5.493;-0.0125122
5.494;-0.0106812
5.495;-0.00854492
5.496;-0.00640869
5.497;-0.00396729
5.498;-0.0012207
5.499;0.0012207
5.5;0.00366211
5.501;0.00610352
5.502;0.0088501
5.503;0.0109863
5.504;0.0131226
5.505;0.0143433
5.506;0.015564
5.507;0.0161743
5.508;0.0164795
5.509;0.0170898
5.51;0.0177002
5.511;0.0183105
5.512;0.0186157
5.513;0.0186157
5.514;0.0186157
5.515;0.0186157
5.516;0.0186157
5.517;0.0192261
5.518;0.0201416
5.519;0.0213623
5.52;0.0222778
5.521;0.0231934
5.522;0.0241089
5.523;0.0253296
5.524;0.0271606
5.525;0.0289917
5.526;0.0314331
5.527;0.0338745
5.528;0.0360107
5.529;0.038147
5.53;0.0402832
5.531;0.0421143
5.532;0.0436401
5.533;0.045166
5.534;0.0460815
5.535;0.0463867
5.536;0.0460815
5.537;0.0457764
5.538;0.045166
5.539;0.0442505
5.54;0.0430298
5.541;0.0418091
5.542;0.0396729
5.543;0.0372314
5.544;0.0344849
5.545;0.0314331
5.546;0.0283813
5.547;0.0253296
5.548;0.0222778
5.549;0.0195312
5.55;0.0167847
5.551;0.0146484
5.552;0.0125122
5.553;0.0109863
5.554;0.00976562
5.555;0.00854492
5.556;0.00732422
5.557;0.00610352
5.558;0.00457764
5.559;0.00274658
5.56;0.000915527
5.561;-0.000915527
5.562;-0.00274658
5.563;-0.00457764
5.564;-0.00640869
5.565;-0.00793457
5.566;-0.00976562
5.567;-0.0115967
5.568;-0.0134277
5.569;-0.015564
5.57;-0.0177002
5.571;-0.0204468
5.572;-0.0231934
5.573;-0.0259399
5.574;-0.0286865
5.575;-0.0311279
5.576;-0.0335693
5.577;-0.0354004
5.578;-0.0369263
5.579;-0.0384521
5.58;-0.039978
5.581;-0.0411987
5.582;-0.0424194
5.583;-0.043335
5.584;-0.0436401
5.585;-0.0436401
5.586;-0.043335
5.587;-0.0424194
5.588;-0.0415039
5.589;-0.0402832
5.59;-0.0384521
5.591;-0.0369263
5.592;-0.0354004
5.593;-0.0341797
5.594;-0.0332642
5.595;-0.0323486
5.596;-0.0320435
5.597;-0.0320435
5.598;-0.0320435
5.599;-0.0320435
5.6;-0.0323486
5.601;-0.032959
5.602;-0.0332642
5.603;-0.0335693
5.604;-0.0341797
5.605;-0.03479
5.606;-0.0360107
5.607;-0.0372314
5.608;-0.0384521
5.609;-0.0393677
5.61;-0.0402832
5.611;-0.0415039
5.612;-0.0424194
5.613;-0.0436401
5.614;-0.0448608
5.615;-0.0460815
5.616;-0.0466919
5.617;-0.0473022
5.618;-0.0476074
5.619;-0.0479126
5.62;-0.0479126
5.621;-0.0476074
5.622;-0.0473022
5.623;-0.0466919
5.624;-0.0454712
5.625;-0.0445557
5.626;-0.043335
5.627;-0.0424194
5.628;-0.0411987
5.629;-0.039978
5.63;-0.0384521
5.631;-0.0372314
5.632;-0.0366211
5.633;-0.0360107
5.634;-0.0357056
5.635;-0.0357056
5.636;-0.0354004
5.637;-0.0350952
5.638;-0.03479
5.639;-0.03479
5.64;-0.03479
5.641;-0.0350952
5.642;-0.0357056
5.643;-0.0360107
5.644;-0.0366211
5.645;-0.0372314
5.646;-0.0378418
5.647;-0.0378418
5.648;-0.0378418
5.649;-0.0372314
5.65;-0.0366211
5.651;-0.0360107
5.652;-0.0350952
5.653;-0.0338745
5.654;-0.0323486
5.655;-0.0308228
5.656;-0.0286865
5.657;-0.0265503
5.658;-0.0241089
5.659;-0.0219727
5.66;-0.0198364
5.661;-0.0183105
5.662;-0.017395
5.663;-0.0167847
5.664;-0.0167847
5.665;-0.017395
5.666;-0.0183105
5.667;-0.0195312
5.668;-0.0210571
5.669;-0.022583
5.67;-0.0238037
5.671;-0.0250244
5.672;-0.0259399
5.673;-0.0268555
5.674;-0.0280762
5.675;-0.0289917
5.676;-0.0302124
5.677;-0.0314331
5.678;-0.0323486
5.679;-0.0326538
5.68;-0.0320435
5.681;-0.0308228
5.682;-0.0286865
5.683;-0.0256348
5.684;-0.0216675
5.685;-0.0170898
5.686;-0.0119019
5.687;-0.00579834
5.688;0.000915527
5.689;0.00854492
5.69;0.0170898
5.691;0.0262451
5.692;0.0363159
5.693;0.0469971
5.694;0.0585938
5.695;0.0717163
5.696;0.0860596
5.697;0.101929
5.698;0.119629
5.699;0.13855
5.7;0.158691
5.701;0.179749
5.702;0.202026
5.703;0.224915
5.704;0.248108
5.705;0.270691
5.706;0.292053
5.707;0.310974
5.708;0.327148
5.709;0.339661
5.71;0.348816
5.711;0.354004
5.712;0.355225
5.713;0.352783
5.714;0.346069
5.715;0.335388
5.716;0.320435
5.717;0.301819
5.718;0.279541
5.719;0.253296
5.72;0.223694
5.721;0.191345
5.722;0.15686
5.723;0.121155
5.724;0.0848389
5.725;0.0485229
5.726;0.0134277
5.727;-0.0201416
5.728;-0.0509644
5.729;-0.0784302
5.73;-0.102234
5.731;-0.12207
5.732;-0.138245
5.733;-0.150452
5.734;-0.158997
5.735;-0.163879
5.736;-0.166016
5.737;-0.165405
5.738;-0.162354
5.739;-0.157776
5.74;-0.151672
5.741;-0.144348
5.742;-0.135803
5.743;-0.126953
5.744;-0.117493
5.745;-0.108337
5.746;-0.0997925
5.747;-0.0918579
5.748;-0.0848389
5.749;-0.0787354
5.75;-0.0735474
5.751;-0.0692749
5.752;-0.0656128
5.753;-0.062561
5.754;-0.0598145
5.755;-0.057373
5.756;-0.055542
5.757;-0.0540161
5.758;-0.0524902
5.759;-0.050354
5.76;-0.0479126
5.761;-0.045166
5.762;-0.0418091
5.763;-0.0387573
5.764;-0.0357056
5.765;-0.032959
5.766;-0.0302124
5.767;-0.0280762
5.768;-0.0262451
5.769;-0.0241089
5.77;-0.0219727
5.771;-0.0198364
5.772;-0.0177002
5.773;-0.0158691
5.774;-0.0137329
5.775;-0.012207
5.776;-0.0106812
5.777;-0.010376
5.778;-0.010376
5.779;-0.0106812
5.78;-0.0115967
5.781;-0.0125122
5.782;-0.0134277
5.783;-0.0143433
5.784;-0.0152588
5.785;-0.0161743
5.786;-0.0170898
5.787;-0.017395
5.788;-0.017395
5.789;-0.0170898
5.79;-0.0164795
5.791;-0.015564
5.792;-0.0146484
5.793;-0.0134277
5.794;-0.012207
5.795;-0.0109863
5.796;-0.00946045
5.797;-0.00762939
5.798;-0.00579834
5.799;-0.00396729
5.8;-0.00213623
5.801;-0.000305176
5.802;0.0012207
5.803;0.00274658
5.804;0.00396729
5.805;0.00488281
5.806;0.00549316
5.807;0.00579834
5.808;0.00579834
5.809;0.00549316
5.81;0.00518799
5.811;0.00488281
5.812;0.00457764
5.813;0.00396729
5.814;0.00366211
5.815;0.00305176
5.816;0.00213623
5.817;0.000915527
5.818;-0.000305176
5.819;-0.00213623
5.82;-0.00396729
5.821;-0.00518799
5.822;-0.00610352
5.823;-0.00640869
5.824;-0.00640869
5.825;-0.00610352
5.826;-0.00549316
5.827;-0.00518799
5.828;-0.00457764
5.829;-0.00396729
5.83;-0.00305176
5.831;-0.00213623
5.832;-0.0012207
5.833;-0.000305176
5.834;0.000305176
5.835;0.0012207
5.836;0.00183105
5.837;0.00274658
5.838;0.00335693
5.839;0.00427246
5.84;0.00518799
5.841;0.00610352
5.842;0.00732422
5.843;0.00854492
5.844;0.00976562
5.845;0.0106812
5.846;0.0115967
5.847;0.0119019
5.848;0.012207
5.849;0.012207
5.85;0.0119019
5.851;0.0115967
5.852;0.0112915
5.853;0.0109863
5.854;0.0106812
5.855;0.0100708
5.856;0.00946045
5.857;0.0088501
5.858;0.00854492
5.859;0.00823975
5.86;0.00762939
5.861;0.00701904
5.862;0.00640869
5.863;0.00549316
5.864;0.00427246
5.865;0.00305176
5.866;0.00183105
5.867;0.000610352
5.868;-0.000305176
5.869;-0.000915527
5.87;-0.00183105
5.871;-0.00244141
5.872;-0.00305176
5.873;-0.00335693
5.874;-0.00335693
5.875;-0.00305176
5.876;-0.00244141
5.877;-0.0012207
5.878;-0.000305176
5.879;0.000915527
5.88;0.00213623
5.881;0.00335693
5.882;0.00457764
5.883;0.00610352
5.884;0.00823975
5.885;0.010376
5.886;0.012207
5.887;0.0143433
5.888;0.0161743
5.889;0.0183105
5.89;0.020752
5.891;0.0228882
5.892;0.0253296
5.893;0.027771
5.894;0.0296021
5.895;0.0308228
5.896;0.0317383
5.897;0.0320435
5.898;0.0320435
5.899;0.0317383
5.9;0.0311279
5.901;0.0302124
5.902;0.0292969
5.903;0.0286865
5.904;0.0280762
5.905;0.027771
5.906;0.027771
5.907;0.027771
5.908;0.0280762
5.909;0.0283813
5.91;0.0286865
5.911;0.0289917
5.912;0.0289917
5.913;0.0286865
5.914;0.0289917
5.915;0.0296021
5.916;0.0308228
5.917;0.0323486
5.918;0.03479
5.919;0.0372314
5.92;0.0396729
5.921;0.0421143
5.922;0.0442505
5.923;0.0466919
5.924;0.0491333
5.925;0.0515747
5.926;0.0540161
5.927;0.0561523
5.928;0.0585938
5.929;0.06073
5.93;0.0631714
5.931;0.0656128
5.932;0.067749
5.933;0.0695801
5.934;0.0714111
5.935;0.072937
5.936;0.0741577
5.937;0.0756836
5.938;0.0772095
5.939;0.0790405
5.94;0.0805664
5.941;0.0820923
5.942;0.0836182
5.943;0.0848389
5.944;0.0860596
5.945;0.0869751
5.946;0.0878906
5.947;0.0881958
5.948;0.088501
5.949;0.0888062
5.95;0.0888062
5.951;0.088501
5.952;0.0881958
5.953;0.0872803
5.954;0.0863647
5.955;0.085144
5.956;0.0842285
5.957;0.0836182
5.958;0.083313
5.959;0.0830078
5.96;0.0827026
5.961;0.0823975
5.962;0.0817871
5.963;0.0811768
5.964;0.0805664
5.965;0.0796509
5.966;0.0790405
5.967;0.0790405
5.968;0.0793457
5.969;0.0799561
5.97;0.0808716
5.971;0.0820923
5.972;0.083313
5.973;0.0845337
5.974;0.0857544
5.975;0.0866699
5.976;0.0872803
5.977;0.0875854
5.978;0.0872803
5.979;0.0866699
5.98;0.085144
5.981;0.0836182
5.982;0.0820923
5.983;0.0805664
5.984;0.0787354
5.985;0.0769043
5.986;0.0747681
5.987;0.0726318
5.988;0.0698853
5.989;0.0674438
5.99;0.0646973
5.991;0.0616455
5.992;0.0585938
5.993;0.0549316
5.994;0.0512695
5.995;0.0473022
5.996;0.0436401
5.997;0.039978
5.998;0.0369263
5.999;0.0338745
6;0.0308228
6.001;0.027771
6.002;0.0244141
6.003;0.020752
6.004;0.017395
6.005;0.0140381
6.006;0.0109863
6.007;0.00823975
6.008;0.00579834
6.009;0.00396729
6.01;0.00274658
6.011;0.00183105
6.012;0.000915527
6.013;0.000610352
6.014;0
6.015;0
6.016;0
6.017;0
6.018;0
6.019;0.000305176
6.02;0.000915527
6.021;0.0012207
6.022;0.00183105
6.023;0.00213623
6.024;0.00213623
6.025;0.00183105
6.026;0.00152588
6.027;0.000610352
6.028;-0.000610352
6.029;-0.00213623
6.03;-0.00366211
6.031;-0.00610352
6.032;-0.00854492
6.033;-0.0119019
6.034;-0.0152588
6.035;-0.0189209
6.036;-0.0222778
6.037;-0.0256348
6.038;-0.0283813
6.039;-0.0314331
6.04;-0.0338745
6.041;-0.0363159
6.042;-0.0384521
6.043;-0.0405884
6.044;-0.0427246
6.045;-0.0445557
6.046;-0.0466919
6.047;-0.0482178
6.048;-0.0494385
6.049;-0.0500488
6.05;-0.0497437
6.051;-0.0491333
6.052;-0.0485229
6.053;-0.0479126
6.054;-0.0473022
6.055;-0.0469971
6.056;-0.0463867
6.057;-0.0457764
6.058;-0.045166
6.059;-0.0442505
6.06;-0.0436401
6.061;-0.0427246
6.062;-0.0418091
6.063;-0.0411987
6.064;-0.0405884
6.065;-0.0402832
6.066;-0.039978
6.067;-0.039978
6.068;-0.039978
6.069;-0.039978
6.07;-0.039978
6.071;-0.039978
6.072;-0.039978
6.073;-0.0402832
6.074;-0.0402832
6.075;-0.039978
6.076;-0.0393677
6.077;-0.0384521
6.078;-0.0375366
6.079;-0.0366211
6.08;-0.0354004
6.081;-0.0344849
6.082;-0.0332642
6.083;-0.0326538
6.084;-0.0320435
6.085;-0.0317383
6.086;-0.0317383
6.087;-0.0317383
6.088;-0.0317383
6.089;-0.0320435
6.09;-0.0323486
6.091;-0.0332642
6.092;-0.03479
6.093;-0.0363159
6.094;-0.038147
6.095;-0.039978
6.096;-0.0421143
6.097;-0.0442505
6.098;-0.0463867
6.099;-0.0482178
6.1;-0.0500488
6.101;-0.0512695
6.102;-0.0518799
6.103;-0.0518799
6.104;-0.0512695
6.105;-0.0506592
6.106;-0.0497437
6.107;-0.0485229
6.108;-0.0473022
6.109;-0.0457764
6.11;-0.0442505
6.111;-0.0430298
6.112;-0.0415039
6.113;-0.039978
6.114;-0.0387573
6.115;-0.0375366
6.116;-0.0363159
6.117;-0.0354004
6.118;-0.0344849
6.119;-0.0335693
6.12;-0.0326538
6.121;-0.0317383
6.122;-0.0308228
6.123;-0.0299072
6.124;-0.0292969
6.125;-0.0286865
6.126;-0.0283813
6.127;-0.0280762
6.128;-0.027771
6.129;-0.0271606
6.13;-0.0262451
6.131;-0.0250244
6.132;-0.0238037
6.133;-0.0219727
6.134;-0.0198364
6.135;-0.0177002
6.136;-0.015564
6.137;-0.0137329
6.138;-0.012207
6.139;-0.0109863
6.14;-0.0100708
6.141;-0.00946045
6.142;-0.0088501
6.143;-0.00854492
6.144;-0.00793457
6.145;-0.00732422
6.146;-0.00671387
6.147;-0.00549316
6.148;-0.00457764
6.149;-0.00335693
6.15;-0.00274658
6.151;-0.00213623
6.152;-0.00183105
6.153;-0.00152588
6.154;-0.0012207
6.155;-0.000610352
6.156;0
6.157;0.000305176
6.158;0.000305176
6.159;0.000610352
6.16;0.000915527
6.161;0.0012207
6.162;0.00152588
6.163;0.00183105
6.164;0.00183105
6.165;0.00183105
6.166;0.00152588
6.167;0.000915527
6.168;0.000305176
6.169;-0.000305176
6.17;-0.000915527
6.171;-0.00152588
6.172;-0.00213623
6.173;-0.00274658
6.174;-0.00305176
6.175;-0.00335693
6.176;-0.00366211
6.177;-0.00396729
6.178;-0.00366211
6.179;-0.00335693
6.18;-0.00305176
6.181;-0.00305176
6.182;-0.00305176
6.183;-0.00305176
6.184;-0.00335693
6.185;-0.00396729
6.186;-0.00488281
6.187;-0.00579834
6.188;-0.00701904
6.189;-0.00793457
6.19;-0.0088501
6.191;-0.0100708
6.192;-0.0109863
6.193;-0.012207
6.194;-0.0134277
6.195;-0.0143433
6.196;-0.0149536
6.197;-0.015564
6.198;-0.0158691
6.199;-0.0158691
6.2;-0.0161743
6.201;-0.0164795
6.202;-0.0164795
6.203;-0.0164795
6.204;-0.0167847
6.205;-0.0167847
6.206;-0.0167847
6.207;-0.0167847
6.208;-0.0164795
6.209;-0.0158691
6.21;-0.0152588
6.211;-0.0143433
6.212;-0.0137329
6.213;-0.0134277
6.214;-0.0134277
6.215;-0.0137329
6.216;-0.0143433
6.217;-0.0149536
6.218;-0.0161743
6.219;-0.017395
6.22;-0.0186157
6.221;-0.0201416
6.222;-0.0216675
6.223;-0.0231934
6.224;-0.0244141
6.225;-0.0253296
6.226;-0.0262451
6.227;-0.0265503
6.228;-0.0271606
6.229;-0.0271606
6.23;-0.0271606
6.231;-0.0268555
6.232;-0.0262451
6.233;-0.0253296
6.234;-0.0241089
6.235;-0.022583
6.236;-0.020752
6.237;-0.0189209
6.238;-0.017395
6.239;-0.015564
6.24;-0.0143433
6.241;-0.0128174
6.242;-0.0115967
6.243;-0.010376
6.244;-0.00976562
6.245;-0.00915527
6.246;-0.00854492
6.247;-0.00823975
6.248;-0.00823975
6.249;-0.00793457
6.25;-0.00793457
6.251;-0.00793457
6.252;-0.00823975
6.253;-0.00854492
6.254;-0.0088501
6.255;-0.00946045
6.256;-0.00976562
6.257;-0.00976562
6.258;-0.00976562
6.259;-0.00915527
6.26;-0.00854492
6.261;-0.00793457
6.262;-0.00701904
6.263;-0.00640869
6.264;-0.00610352
6.265;-0.00579834
6.266;-0.00610352
6.267;-0.00640869
6.268;-0.00701904
6.269;-0.00793457
6.27;-0.00854492
6.271;-0.00946045
6.272;-0.010376
6.273;-0.0115967
6.274;-0.0128174
6.275;-0.0140381
6.276;-0.0149536
6.277;-0.0158691
6.278;-0.0167847
6.279;-0.0170898
6.28;-0.0170898
6.281;-0.0170898
6.282;-0.0161743
6.283;-0.0152588
6.284;-0.0140381
6.285;-0.012207
6.286;-0.010376
6.287;-0.00823975
6.288;-0.00640869
6.289;-0.00427246
6.29;-0.00213623
6.291;-0.000610352
6.292;0.000610352
6.293;0.0012207
6.294;0.0012207
6.295;0.000610352
6.296;0
6.297;-0.000610352
6.298;-0.0012207
6.299;-0.00213623
6.3;-0.00274658
6.301;-0.00366211
6.302;-0.00427246
6.303;-0.00549316
6.304;-0.00640869
6.305;-0.00793457
6.306;-0.00915527
6.307;-0.010376
6.308;-0.0112915
6.309;-0.012207
6.31;-0.0128174
6.311;-0.0131226
6.312;-0.0134277
6.313;-0.0134277
6.314;-0.0134277
6.315;-0.0128174
6.316;-0.0125122
6.317;-0.0119019
6.318;-0.0112915
6.319;-0.0109863
6.32;-0.0106812
6.321;-0.0106812
6.322;-0.0106812
6.323;-0.0109863
6.324;-0.0112915
6.325;-0.0115967
6.326;-0.0119019
6.327;-0.0119019
6.328;-0.0119019
6.329;-0.0115967
6.33;-0.0106812
6.331;-0.00976562
6.332;-0.00854492
6.333;-0.00701904
6.334;-0.00549316
6.335;-0.00366211
6.336;-0.00213623
6.337;-0.000305176
6.338;0.000915527
6.339;0.00183105
6.34;0.00244141
6.341;0.00305176
6.342;0.00335693
6.343;0.00366211
6.344;0.00396729
6.345;0.00427246
6.346;0.00427246
6.347;0.00396729
6.348;0.00366211
6.349;0.00305176
6.35;0.00244141
6.351;0.0012207
6.352;0
6.353;-0.0012207
6.354;-0.00274658
6.355;-0.00427246
6.356;-0.00579834
6.357;-0.00701904
6.358;-0.00823975
6.359;-0.0088501
6.36;-0.00915527
6.361;-0.00915527
6.362;-0.00915527
6.363;-0.00915527
6.364;-0.00946045
6.365;-0.00946045
6.366;-0.00976562
6.367;-0.010376
6.368;-0.0106812
6.369;-0.0109863
6.37;-0.0112915
6.371;-0.0119019
6.372;-0.0125122
6.373;-0.0134277
6.374;-0.0140381
6.375;-0.0143433
6.376;-0.0143433
6.377;-0.0143433
6.378;-0.0137329
6.379;-0.0134277
6.38;-0.0134277
6.381;-0.0134277
6.382;-0.0134277
6.383;-0.0134277
6.384;-0.0137329
6.385;-0.0137329
6.386;-0.0137329
6.387;-0.0131226
6.388;-0.0119019
6.389;-0.0100708
6.39;-0.00823975
6.391;-0.00640869
6.392;-0.00488281
6.393;-0.00366211
6.394;-0.00305176
6.395;-0.00274658
6.396;-0.00244141
6.397;-0.00213623
6.398;-0.00213623
6.399;-0.00152588
6.4;-0.000915527
6.401;0.000305176
6.402;0.00183105
6.403;0.00366211
6.404;0.00579834
6.405;0.00762939
6.406;0.00976562
6.407;0.0112915
6.408;0.0134277
6.409;0.015564
6.41;0.0180054
6.411;0.020752
6.412;0.0234985
6.413;0.0262451
6.414;0.0286865
6.415;0.0311279
6.416;0.0338745
6.417;0.0366211
6.418;0.0390625
6.419;0.0408936
6.42;0.0421143
6.421;0.0427246
6.422;0.0427246
6.423;0.0427246
6.424;0.0424194
6.425;0.0421143
6.426;0.0415039
6.427;0.0411987
6.428;0.0408936
6.429;0.0405884
6.43;0.0402832
6.431;0.0402832
6.432;0.039978
6.433;0.039978
6.434;0.0396729
6.435;0.0396729
6.436;0.0396729
6.437;0.0396729
6.438;0.0396729
6.439;0.039978
6.44;0.039978
6.441;0.039978
6.442;0.039978
6.443;0.0402832
6.444;0.0402832
6.445;0.0402832
6.446;0.0402832
6.447;0.0402832
6.448;0.039978
6.449;0.0396729
6.45;0.0393677
6.451;0.0384521
6.452;0.0369263
6.453;0.0350952
6.454;0.032959
6.455;0.0305176
6.456;0.0280762
6.457;0.0256348
6.458;0.0228882
6.459;0.0201416
6.46;0.0177002
6.461;0.0152588
6.462;0.0131226
6.463;0.0109863
6.464;0.0088501
6.465;0.00671387
6.466;0.00396729
6.467;0.0012207
6.468;-0.00152588
6.469;-0.00427246
6.47;-0.00701904
6.471;-0.00946045
6.472;-0.0115967
6.473;-0.0134277
6.474;-0.0143433
6.475;-0.0149536
6.476;-0.0152588
6.477;-0.0149536
6.478;-0.0146484
6.479;-0.0146484
6.48;-0.0146484
6.481;-0.0143433
6.482;-0.0140381
6.483;-0.0131226
6.484;-0.012207
6.485;-0.0109863
6.486;-0.0100708
6.487;-0.0088501
6.488;-0.00823975
6.489;-0.00762939
6.49;-0.00701904
6.491;-0.00671387
6.492;-0.00610352
6.493;-0.00579834
6.494;-0.00549316
6.495;-0.00549316
6.496;-0.00549316
6.497;-0.00579834
6.498;-0.00610352
6.499;-0.00671387
6.5;-0.00793457
6.501;-0.0088501
6.502;-0.0100708
6.503;-0.0115967
6.504;-0.0128174
6.505;-0.0143433
6.506;-0.015564
6.507;-0.0164795
6.508;-0.017395
6.509;-0.0180054
6.51;-0.0183105
6.511;-0.0183105
6.512;-0.0186157
6.513;-0.0186157
6.514;-0.0186157
6.515;-0.0183105
6.516;-0.0180054
6.517;-0.0177002
6.518;-0.0167847
6.519;-0.0158691
6.52;-0.0146484
6.521;-0.0134277
6.522;-0.012207
6.523;-0.0112915
6.524;-0.010376
6.525;-0.0100708
6.526;-0.0100708
6.527;-0.0106812
6.528;-0.0112915
6.529;-0.0125122
6.53;-0.0134277
6.531;-0.0140381
6.532;-0.0146484
6.533;-0.0146484
6.534;-0.0146484
6.535;-0.0146484
6.536;-0.0143433
6.537;-0.0143433
6.538;-0.0140381
6.539;-0.0134277
6.54;-0.0128174
6.541;-0.0115967
6.542;-0.0100708
6.543;-0.00823975
6.544;-0.00579834
6.545;-0.00366211
6.546;-0.00152588
6.547;0.000915527
6.548;0.00305176
6.549;0.00549316
6.55;0.00762939
6.551;0.0100708
6.552;0.0119019
6.553;0.0131226
6.554;0.0140381
6.555;0.0146484
6.556;0.0149536
6.557;0.0152588
6.558;0.0152588
6.559;0.0149536
6.56;0.0149536
6.561;0.0149536
6.562;0.0146484
6.563;0.0146484
6.564;0.0146484
6.565;0.0149536
6.566;0.0152588
6.567;0.0158691
6.568;0.0164795
6.569;0.017395
6.57;0.0189209
6.571;0.020752
6.572;0.0228882
6.573;0.0256348
6.574;0.0289917
6.575;0.032959
6.576;0.0378418
6.577;0.043335
6.578;0.0491333
6.579;0.055542
6.58;0.0628662
6.581;0.0708008
6.582;0.0796509
6.583;0.0897217
6.584;0.100403
6.585;0.112
6.586;0.124512
6.587;0.13855
6.588;0.153503
6.589;0.170288
6.59;0.188599
6.591;0.20874
6.592;0.230103
6.593;0.252686
6.594;0.275269
6.595;0.297546
6.596;0.318604
6.597;0.337524
6.598;0.354004
6.599;0.367126
6.6;0.376892
6.601;0.382996
6.602;0.385437
6.603;0.383606
6.604;0.377808
6.605;0.367432
6.606;0.353088
6.607;0.334473
6.608;0.31189
6.609;0.285645
6.61;0.256348
6.611;0.224304
6.612;0.189819
6.613;0.154114
6.614;0.117798
6.615;0.0814819
6.616;0.0460815
6.617;0.012207
6.618;-0.0192261
6.619;-0.0476074
6.62;-0.0717163
6.621;-0.0918579
6.622;-0.107727
6.623;-0.119324
6.624;-0.127563
6.625;-0.131836
6.626;-0.133057
6.627;-0.131226
6.628;-0.126343
6.629;-0.119324
6.63;-0.110779
6.631;-0.100708
6.632;-0.090332
6.633;-0.0796509
6.634;-0.0689697
6.635;-0.0582886
6.636;-0.0482178
6.637;-0.0387573
6.638;-0.0302124
6.639;-0.022583
6.64;-0.0158691
6.641;-0.00976562
6.642;-0.00488281
6.643;-0.000610352
6.644;0.00274658
6.645;0.00549316
6.646;0.00762939
6.647;0.00946045
6.648;0.0109863
6.649;0.0128174
6.65;0.0143433
6.651;0.015564
6.652;0.0167847
6.653;0.0177002
6.654;0.0186157
6.655;0.0195312
6.656;0.0204468
6.657;0.0216675
6.658;0.0228882
6.659;0.0238037
6.66;0.0250244
6.661;0.0259399
6.662;0.0268555
6.663;0.0280762
6.664;0.0292969
6.665;0.0308228
6.666;0.0320435
6.667;0.032959
6.668;0.0338745
6.669;0.03479
6.67;0.0357056
6.671;0.0360107
6.672;0.0363159
6.673;0.0363159
6.674;0.0360107
6.675;0.0354004
6.676;0.03479
6.677;0.0341797
6.678;0.0338745
6.679;0.0338745
6.68;0.0341797
6.681;0.0344849
6.682;0.03479
6.683;0.03479
6.684;0.0350952
6.685;0.0357056
6.686;0.0363159
6.687;0.0369263
6.688;0.0378418
6.689;0.0387573
6.69;0.0396729
6.691;0.0405884
6.692;0.0415039
6.693;0.0421143
6.694;0.0430298
6.695;0.0439453
6.696;0.0448608
6.697;0.0457764
6.698;0.0466919
6.699;0.0473022
6.7;0.0476074
6.701;0.0476074
6.702;0.0469971
6.703;0.0457764
6.704;0.0445557
6.705;0.0427246
6.706;0.0408936
6.707;0.0387573
6.708;0.0369263
6.709;0.03479
6.71;0.032959
6.711;0.0311279
6.712;0.0292969
6.713;0.0280762
6.714;0.0268555
6.715;0.0262451
6.716;0.0262451
6.717;0.0265503
6.718;0.0271606
6.719;0.0280762
6.72;0.0292969
6.721;0.0311279
6.722;0.032959
6.723;0.03479
6.724;0.0366211
6.725;0.038147
6.726;0.0396729
6.727;0.0411987
6.728;0.0427246
6.729;0.0445557
6.73;0.0466919
6.731;0.0488281
6.732;0.0509644
6.733;0.0527954
6.734;0.0546265
6.735;0.0561523
6.736;0.0570679
6.737;0.0576782
6.738;0.0579834
6.739;0.0579834
6.74;0.0579834
6.741;0.0576782
6.742;0.0576782
6.743;0.0576782
6.744;0.0576782
6.745;0.0576782
6.746;0.057373
6.747;0.0567627
6.748;0.0564575
6.749;0.0567627
6.75;0.0570679
6.751;0.0579834
6.752;0.0588989
6.753;0.0598145
6.754;0.06073
6.755;0.0610352
6.756;0.0613403
6.757;0.0616455
6.758;0.0616455
6.759;0.0619507
6.76;0.0622559
6.761;0.0628662
6.762;0.0634766
6.763;0.0640869
6.764;0.0646973
6.765;0.0650024
6.766;0.0653076
6.767;0.0656128
6.768;0.0656128
6.769;0.065918
6.77;0.065918
6.771;0.065918
6.772;0.065918
6.773;0.065918
6.774;0.0662231
6.775;0.0665283
6.776;0.0674438
6.777;0.0683594
6.778;0.0695801
6.779;0.0708008
6.78;0.0720215
6.781;0.0735474
6.782;0.0747681
6.783;0.0759888
6.784;0.0775146
6.785;0.0787354
6.786;0.0799561
6.787;0.0811768
6.788;0.0823975
6.789;0.0836182
6.79;0.0845337
6.791;0.085144
6.792;0.0857544
6.793;0.0860596
6.794;0.0860596
6.795;0.0857544
6.796;0.085144
6.797;0.0845337
6.798;0.0842285
6.799;0.0836182
6.8;0.0836182
6.801;0.083313
6.802;0.083313
6.803;0.0836182
6.804;0.0845337
6.805;0.0854492
6.806;0.0869751
6.807;0.0891113
6.808;0.0918579
6.809;0.0952148
6.81;0.098877
6.811;0.102539
6.812;0.106812
6.813;0.111084
6.814;0.115662
6.815;0.120239
6.816;0.124512
6.817;0.128479
6.818;0.132446
6.819;0.135803
6.82;0.13916
6.821;0.141602
6.822;0.143738
6.823;0.145264
6.824;0.14679
6.825;0.147705
6.826;0.148621
6.827;0.149536
6.828;0.150146
6.829;0.150757
6.83;0.151062
6.831;0.151062
6.832;0.150452
6.833;0.149841
6.834;0.149536
6.835;0.149231
6.836;0.149536
6.837;0.150146
6.838;0.150757
6.839;0.151978
6.84;0.152893
6.841;0.154419
6.842;0.155945
6.843;0.157776
6.844;0.159912
6.845;0.161743
6.846;0.163269
6.847;0.164795
6.848;0.166016
6.849;0.167236
6.85;0.168152
6.851;0.168762
6.852;0.169373
6.853;0.169678
6.854;0.169678
6.855;0.169373
6.856;0.168762
6.857;0.168457
6.858;0.167847
6.859;0.166931
6.86;0.16571
6.861;0.16449
6.862;0.162964
6.863;0.161133
6.864;0.159302
6.865;0.157471
6.866;0.155945
6.867;0.154419
6.868;0.153198
6.869;0.152588
6.87;0.151978
6.871;0.151367
6.872;0.151062
6.873;0.150452
6.874;0.150146
6.875;0.149231
6.876;0.148621
6.877;0.147705
6.878;0.14679
6.879;0.145874
6.88;0.144958
6.881;0.143738
6.882;0.142517
6.883;0.140991
6.884;0.139465
6.885;0.137939
6.886;0.135803
6.887;0.133362
6.888;0.130615
6.889;0.127258
6.89;0.123596
6.891;0.119934
6.892;0.115662
6.893;0.111694
6.894;0.107727
6.895;0.10376
6.896;0.0997925
6.897;0.0961304
6.898;0.0921631
6.899;0.088501
6.9;0.0845337
6.901;0.0805664
6.902;0.0769043
6.903;0.0735474
6.904;0.0701904
6.905;0.0671387
6.906;0.0640869
6.907;0.0610352
6.908;0.0579834
6.909;0.0549316
6.91;0.0518799
6.911;0.0494385
