0;-0.0247192
0.001;-0.0241089
0.002;-0.0234985
0.003;-0.0228882
0.004;-0.0222778
0.005;-0.0216675
0.006;-0.0216675
0.007;-0.0216675
0.008;-0.0216675
0.009;-0.0216675
0.01;-0.0213623
0.011;-0.0213623
0.012;-0.0210571
0.013;-0.020752
0.014;-0.020752
0.015;-0.020752
0.016;-0.0204468
0.017;-0.0201416
0.018;-0.0198364
0.019;-0.0195312
0.02;-0.0186157
0.021;-0.0180054
0.022;-0.0170898
0.023;-0.0161743
0.024;-0.0152588
0.025;-0.0143433
0.026;-0.0134277
0.027;-0.0128174
0.028;-0.0119019
0.029;-0.0109863
0.03;-0.010376
0.031;-0.00915527
0.032;-0.00823975
0.033;-0.00671387
0.034;-0.00518799
0.035;-0.00335693
0.036;-0.00152588
0.037;0
0.038;0.0012207
0.039;0.00213623
0.04;0.00244141
0.041;0.00213623
0.042;0.00183105
0.043;0.00152588
0.044;0.000915527
0.045;0.000305176
0.046;-0.000305176
0.047;-0.000915527
0.048;-0.00152588
0.049;-0.00244141
0.05;-0.00335693
0.051;-0.00488281
0.052;-0.00671387
0.053;-0.0088501
0.054;-0.0109863
0.055;-0.0128174
0.056;-0.0146484
0.057;-0.0161743
0.058;-0.017395
0.059;-0.0186157
0.06;-0.0198364
0.061;-0.0213623
0.062;-0.022583
0.063;-0.0238037
0.064;-0.0244141
0.065;-0.0247192
0.066;-0.0247192
0.067;-0.0241089
0.068;-0.0231934
0.069;-0.0219727
0.07;-0.020752
0.071;-0.0192261
0.072;-0.0177002
0.073;-0.0161743
0.074;-0.0146484
0.075;-0.0128174
0.076;-0.0112915
0.077;-0.0100708
0.078;-0.00915527
0.079;-0.0088501
0.08;-0.00854492
0.081;-0.0088501
0.082;-0.00915527
0.083;-0.0100708
0.084;-0.0112915
0.085;-0.0128174
0.086;-0.0146484
0.087;-0.0164795
0.088;-0.0189209
0.089;-0.0210571
0.09;-0.0231934
0.091;-0.0253296
0.092;-0.0274658
0.093;-0.0292969
0.094;-0.0308228
0.095;-0.0323486
0.096;-0.0335693
0.097;-0.0344849
0.098;-0.0354004
0.099;-0.0357056
0.1;-0.0363159
0.101;-0.0363159
0.102;-0.0360107
0.103;-0.0354004
0.104;-0.0341797
0.105;-0.0326538
0.106;-0.0311279
0.107;-0.0302124
0.108;-0.0296021
0.109;-0.0296021
0.11;-0.0302124
0.111;-0.0305176
0.112;-0.0311279
0.113;-0.0314331
0.114;-0.0317383
0.115;-0.0317383
0.116;-0.0314331
0.117;-0.0311279
0.118;-0.0311279
0.119;-0.0308228
0.12;-0.0308228
0.121;-0.0311279
0.122;-0.0311279
0.123;-0.0314331
0.124;-0.0314331
0.125;-0.0317383
0.126;-0.0317383
0.127;-0.0317383
0.128;-0.0317383
0.129;-0.0311279
0.13;-0.0308228
0.131;-0.0308228
0.132;-0.0308228
0.133;-0.0314331
0.134;-0.0317383
0.135;-0.0323486
0.136;-0.0326538
0.137;-0.0326538
0.138;-0.0320435
0.139;-0.0314331
0.14;-0.0305176
0.141;-0.0302124
0.142;-0.0305176
0.143;-0.0314331
0.144;-0.0326538
0.145;-0.0341797
0.146;-0.0354004
0.147;-0.0363159
0.148;-0.0369263
0.149;-0.0372314
0.15;-0.0369263
0.151;-0.0369263
0.152;-0.0366211
0.153;-0.0366211
0.154;-0.0363159
0.155;-0.0360107
0.156;-0.0357056
0.157;-0.0350952
0.158;-0.0344849
0.159;-0.0335693
0.16;-0.0326538
0.161;-0.0317383
0.162;-0.0305176
0.163;-0.0299072
0.164;-0.0292969
0.165;-0.0296021
0.166;-0.0302124
0.167;-0.0308228
0.168;-0.0311279
0.169;-0.0311279
0.17;-0.0308228
0.171;-0.0299072
0.172;-0.0289917
0.173;-0.0283813
0.174;-0.027771
0.175;-0.0271606
0.176;-0.0268555
0.177;-0.0259399
0.178;-0.0250244
0.179;-0.0238037
0.18;-0.0222778
0.181;-0.0201416
0.182;-0.0177002
0.183;-0.0146484
0.184;-0.0109863
0.185;-0.00701904
0.186;-0.00213623
0.187;0.00335693
0.188;0.0088501
0.189;0.0143433
0.19;0.0192261
0.191;0.0238037
0.192;0.0274658
0.193;0.0302124
0.194;0.0323486
0.195;0.0338745
0.196;0.03479
0.197;0.0357056
0.198;0.0366211
0.199;0.0378418
0.2;0.0390625
0.201;0.0402832
0.202;0.0418091
0.203;0.0436401
0.204;0.045166
0.205;0.0469971
0.206;0.0491333
0.207;0.0515747
0.208;0.0540161
0.209;0.0570679
0.21;0.0598145
0.211;0.0631714
0.212;0.0662231
0.213;0.0695801
0.214;0.0723267
0.215;0.0747681
0.216;0.0769043
0.217;0.0784302
0.218;0.0793457
0.219;0.0802612
0.22;0.0805664
0.221;0.0802612
0.222;0.0790405
0.223;0.0775146
0.224;0.0750732
0.225;0.0717163
0.226;0.0680542
0.227;0.0634766
0.228;0.0588989
0.229;0.0540161
0.23;0.0491333
0.231;0.0445557
0.232;0.039978
0.233;0.0357056
0.234;0.0320435
0.235;0.0283813
0.236;0.0250244
0.237;0.0216675
0.238;0.0183105
0.239;0.0149536
0.24;0.0115967
0.241;0.00793457
0.242;0.00427246
0.243;0.000915527
0.244;-0.00244141
0.245;-0.00579834
0.246;-0.00915527
0.247;-0.0125122
0.248;-0.0158691
0.249;-0.0192261
0.25;-0.0228882
0.251;-0.0262451
0.252;-0.0292969
0.253;-0.0323486
0.254;-0.0350952
0.255;-0.0378418
0.256;-0.039978
0.257;-0.0418091
0.258;-0.0436401
0.259;-0.0454712
0.26;-0.0473022
0.261;-0.0491333
0.262;-0.0506592
0.263;-0.0521851
0.264;-0.0531006
0.265;-0.0540161
0.266;-0.0546265
0.267;-0.0549316
0.268;-0.0549316
0.269;-0.0552368
0.27;-0.0558472
0.271;-0.0564575
0.272;-0.0570679
0.273;-0.057373
0.274;-0.0579834
0.275;-0.0579834
0.276;-0.0579834
0.277;-0.0576782
0.278;-0.057373
0.279;-0.057373
0.28;-0.0576782
0.281;-0.0579834
0.282;-0.0585938
0.283;-0.0598145
0.284;-0.0610352
0.285;-0.062561
0.286;-0.0643921
0.287;-0.0665283
0.288;-0.0692749
0.289;-0.0726318
0.29;-0.0772095
0.291;-0.0823975
0.292;-0.088501
0.293;-0.09552
0.294;-0.10376
0.295;-0.112915
0.296;-0.122986
0.297;-0.133057
0.298;-0.143433
0.299;-0.153503
0.3;-0.162659
0.301;-0.170288
0.302;-0.176086
0.303;-0.179443
0.304;-0.180664
0.305;-0.178833
0.306;-0.173645
0.307;-0.1651
0.308;-0.152283
0.309;-0.135193
0.31;-0.11322
0.311;-0.0860596
0.312;-0.0534058
0.313;-0.0140381
0.314;0.0314331
0.315;0.0842285
0.316;0.143738
0.317;0.210266
0.318;0.283508
0.319;0.363464
0.32;0.450439
0.321;0.543213
0.322;0.639648
0.323;0.73761
0.324;0.83374
0.325;0.925903
0.326;1.01196
0.327;1.091
0.328;1.1618
0.329;1.22437
0.33;1.27747
0.331;1.32019
0.332;1.35254
0.333;1.37329
0.334;1.38214
0.335;1.37787
0.336;1.35986
0.337;1.32812
0.338;1.28174
0.339;1.22162
0.34;1.14838
0.341;1.06354
0.342;0.968933
0.343;0.866699
0.344;0.758972
0.345;0.647888
0.346;0.535889
0.347;0.424805
0.348;0.316772
0.349;0.213318
0.35;0.115662
0.351;0.0241089
0.352;-0.0604248
0.353;-0.137939
0.354;-0.207825
0.355;-0.270386
0.356;-0.325012
0.357;-0.371704
0.358;-0.410461
0.359;-0.441589
0.36;-0.465088
0.361;-0.482178
0.362;-0.492554
0.363;-0.497437
0.364;-0.496826
0.365;-0.491943
0.366;-0.483093
0.367;-0.471191
0.368;-0.456848
0.369;-0.440369
0.37;-0.422668
0.371;-0.403748
0.372;-0.384521
0.373;-0.364685
0.374;-0.345154
0.375;-0.325928
0.376;-0.307312
0.377;-0.289307
0.378;-0.272522
0.379;-0.256042
0.38;-0.240479
0.381;-0.225525
0.382;-0.211182
0.383;-0.198059
0.384;-0.185852
0.385;-0.175171
0.386;-0.16571
0.387;-0.157471
0.388;-0.150146
0.389;-0.144043
0.39;-0.13855
0.391;-0.133972
0.392;-0.130615
0.393;-0.127869
0.394;-0.126343
0.395;-0.125732
0.396;-0.125427
0.397;-0.125732
0.398;-0.125732
0.399;-0.125732
0.4;-0.125122
0.401;-0.124512
0.402;-0.123596
0.403;-0.122681
0.404;-0.12146
0.405;-0.119934
0.406;-0.118713
0.407;-0.116882
0.408;-0.115051
0.409;-0.112915
0.41;-0.110474
0.411;-0.108032
0.412;-0.105591
0.413;-0.103455
0.414;-0.101318
0.415;-0.0997925
0.416;-0.0982666
0.417;-0.0970459
0.418;-0.0958252
0.419;-0.0949097
0.42;-0.0939941
0.421;-0.0933838
0.422;-0.0927734
0.423;-0.0924683
0.424;-0.0918579
0.425;-0.0909424
0.426;-0.090332
0.427;-0.0891113
0.428;-0.0881958
0.429;-0.0866699
0.43;-0.0854492
0.431;-0.0839233
0.432;-0.0827026
0.433;-0.0814819
0.434;-0.0802612
0.435;-0.0787354
0.436;-0.0769043
0.437;-0.0750732
0.438;-0.0726318
0.439;-0.0704956
0.44;-0.0680542
0.441;-0.065918
0.442;-0.0640869
0.443;-0.062561
0.444;-0.0613403
0.445;-0.0604248
0.446;-0.0595093
0.447;-0.0585938
0.448;-0.057373
0.449;-0.0561523
0.45;-0.0546265
0.451;-0.0531006
0.452;-0.0512695
0.453;-0.0497437
0.454;-0.0479126
0.455;-0.0463867
0.456;-0.0448608
0.457;-0.0430298
0.458;-0.0411987
0.459;-0.0387573
0.46;-0.0363159
0.461;-0.0338745
0.462;-0.0311279
0.463;-0.0286865
0.464;-0.0259399
0.465;-0.0234985
0.466;-0.0210571
0.467;-0.0189209
0.468;-0.0167847
0.469;-0.0146484
0.47;-0.0128174
0.471;-0.010376
0.472;-0.00732422
0.473;-0.00427246
0.474;-0.000610352
0.475;0.00244141
0.476;0.00518799
0.477;0.00762939
0.478;0.00976562
0.479;0.0119019
0.48;0.0137329
0.481;0.0158691
0.482;0.0183105
0.483;0.0204468
0.484;0.0228882
0.485;0.0250244
0.486;0.0268555
0.487;0.0286865
0.488;0.0305176
0.489;0.0320435
0.49;0.0341797
0.491;0.0360107
0.492;0.038147
0.493;0.0402832
0.494;0.0424194
0.495;0.0442505
0.496;0.0460815
0.497;0.0476074
0.498;0.0491333
0.499;0.0506592
0.5;0.0524902
0.501;0.0549316
0.502;0.0582886
0.503;0.0616455
0.504;0.0656128
0.505;0.0692749
0.506;0.0726318
0.507;0.0756836
0.508;0.078125
0.509;0.0802612
0.51;0.0817871
0.511;0.083313
0.512;0.0845337
0.513;0.0854492
0.514;0.0860596
0.515;0.0866699
0.516;0.0869751
0.517;0.0869751
0.518;0.0872803
0.519;0.0872803
0.52;0.0875854
0.521;0.0878906
0.522;0.0881958
0.523;0.0888062
0.524;0.0894165
0.525;0.0897217
0.526;0.0900269
0.527;0.090332
0.528;0.0906372
0.529;0.0912476
0.53;0.0918579
0.531;0.0930786
0.532;0.0939941
0.533;0.0946045
0.534;0.0949097
0.535;0.0949097
0.536;0.0942993
0.537;0.0933838
0.538;0.0918579
0.539;0.0897217
0.54;0.0872803
0.541;0.0848389
0.542;0.0820923
0.543;0.0796509
0.544;0.0772095
0.545;0.0747681
0.546;0.0723267
0.547;0.0698853
0.548;0.0674438
0.549;0.0650024
0.55;0.062561
0.551;0.0601196
0.552;0.0582886
0.553;0.0561523
0.554;0.0546265
0.555;0.0534058
0.556;0.0524902
0.557;0.0521851
0.558;0.0518799
0.559;0.0518799
0.56;0.0518799
0.561;0.0515747
0.562;0.0506592
0.563;0.0494385
0.564;0.0476074
0.565;0.0457764
0.566;0.0439453
0.567;0.0421143
0.568;0.0405884
0.569;0.0390625
0.57;0.0378418
0.571;0.0366211
0.572;0.0354004
0.573;0.0338745
0.574;0.0323486
0.575;0.0305176
0.576;0.0286865
0.577;0.0268555
0.578;0.0247192
0.579;0.0219727
0.58;0.0192261
0.581;0.0158691
0.582;0.0125122
0.583;0.00915527
0.584;0.00549316
0.585;0.00183105
0.586;-0.00152588
0.587;-0.00488281
0.588;-0.00762939
0.589;-0.010376
0.59;-0.0128174
0.591;-0.0149536
0.592;-0.017395
0.593;-0.0195312
0.594;-0.0213623
0.595;-0.022583
0.596;-0.0228882
0.597;-0.0228882
0.598;-0.0222778
0.599;-0.0213623
0.6;-0.0204468
0.601;-0.0195312
0.602;-0.0189209
0.603;-0.0186157
0.604;-0.0183105
0.605;-0.0183105
0.606;-0.0180054
0.607;-0.0180054
0.608;-0.0183105
0.609;-0.0186157
0.61;-0.0189209
0.611;-0.0198364
0.612;-0.0210571
0.613;-0.0228882
0.614;-0.0250244
0.615;-0.0271606
0.616;-0.0292969
0.617;-0.0311279
0.618;-0.0326538
0.619;-0.0338745
0.62;-0.0341797
0.621;-0.0341797
0.622;-0.0338745
0.623;-0.032959
0.624;-0.0323486
0.625;-0.0317383
0.626;-0.0308228
0.627;-0.0299072
0.628;-0.0286865
0.629;-0.0274658
0.63;-0.0259399
0.631;-0.0247192
0.632;-0.0238037
0.633;-0.0228882
0.634;-0.022583
0.635;-0.0222778
0.636;-0.0222778
0.637;-0.022583
0.638;-0.022583
0.639;-0.0228882
0.64;-0.0228882
0.641;-0.022583
0.642;-0.0216675
0.643;-0.0204468
0.644;-0.0186157
0.645;-0.0167847
0.646;-0.0146484
0.647;-0.0125122
0.648;-0.0106812
0.649;-0.00915527
0.65;-0.00823975
0.651;-0.00732422
0.652;-0.00671387
0.653;-0.00610352
0.654;-0.00518799
0.655;-0.00396729
0.656;-0.00274658
0.657;-0.00152588
0.658;-0.000915527
0.659;-0.000305176
0.66;-0.000305176
0.661;-0.000610352
0.662;-0.0012207
0.663;-0.00213623
0.664;-0.00335693
0.665;-0.00427246
0.666;-0.00488281
0.667;-0.00488281
0.668;-0.00457764
0.669;-0.00396729
0.67;-0.00335693
0.671;-0.00244141
0.672;-0.00183105
0.673;-0.0012207
0.674;-0.000610352
0.675;0
0.676;0.000915527
0.677;0.00213623
0.678;0.00305176
0.679;0.00457764
0.68;0.00579834
0.681;0.00732422
0.682;0.00854492
0.683;0.0100708
0.684;0.0115967
0.685;0.0131226
0.686;0.0149536
0.687;0.0167847
0.688;0.0186157
0.689;0.0201416
0.69;0.0216675
0.691;0.0228882
0.692;0.0238037
0.693;0.0244141
0.694;0.0247192
0.695;0.0247192
0.696;0.0247192
0.697;0.0247192
0.698;0.0241089
0.699;0.0231934
0.7;0.0216675
0.701;0.0201416
0.702;0.0180054
0.703;0.0158691
0.704;0.0137329
0.705;0.0115967
0.706;0.00946045
0.707;0.00732422
0.708;0.00549316
0.709;0.00396729
0.71;0.00274658
0.711;0.00183105
0.712;0.00152588
0.713;0.0012207
0.714;0.00152588
0.715;0.00183105
0.716;0.00213623
0.717;0.00244141
0.718;0.00244141
0.719;0.00244141
0.72;0.00213623
0.721;0.00213623
0.722;0.00183105
0.723;0.00183105
0.724;0.00152588
0.725;0.0012207
0.726;0.000915527
0.727;0.000610352
0.728;0
0.729;-0.000610352
0.73;-0.0012207
0.731;-0.00183105
0.732;-0.00213623
0.733;-0.00274658
0.734;-0.00335693
0.735;-0.00396729
0.736;-0.00488281
0.737;-0.00579834
0.738;-0.00640869
0.739;-0.00732422
0.74;-0.00793457
0.741;-0.00823975
0.742;-0.00823975
0.743;-0.00823975
0.744;-0.00793457
0.745;-0.00762939
0.746;-0.00701904
0.747;-0.00671387
0.748;-0.00610352
0.749;-0.00549316
0.75;-0.00427246
0.751;-0.00274658
0.752;-0.000610352
0.753;0.00274658
0.754;0.00671387
0.755;0.0112915
0.756;0.0164795
0.757;0.0222778
0.758;0.0280762
0.759;0.0335693
0.76;0.0390625
0.761;0.0436401
0.762;0.0479126
0.763;0.0509644
0.764;0.0534058
0.765;0.0552368
0.766;0.0570679
0.767;0.0582886
0.768;0.0595093
0.769;0.0610352
0.77;0.0622559
0.771;0.0634766
0.772;0.0643921
0.773;0.0646973
0.774;0.0653076
0.775;0.0656128
0.776;0.0665283
0.777;0.067749
0.778;0.0695801
0.779;0.0720215
0.78;0.0747681
0.781;0.078125
0.782;0.0817871
0.783;0.0860596
0.784;0.0900269
0.785;0.093689
0.786;0.0970459
0.787;0.0997925
0.788;0.101624
0.789;0.102844
0.79;0.102844
0.791;0.102234
0.792;0.100403
0.793;0.0973511
0.794;0.0933838
0.795;0.0888062
0.796;0.0839233
0.797;0.0784302
0.798;0.0726318
0.799;0.0668335
0.8;0.06073
0.801;0.0549316
0.802;0.0497437
0.803;0.045166
0.804;0.0411987
0.805;0.0378418
0.806;0.0344849
0.807;0.0314331
0.808;0.0283813
0.809;0.0253296
0.81;0.022583
0.811;0.0198364
0.812;0.0170898
0.813;0.0149536
0.814;0.0125122
0.815;0.00976562
0.816;0.00671387
0.817;0.00335693
0.818;-0.000915527
0.819;-0.00579834
0.82;-0.0106812
0.821;-0.0161743
0.822;-0.0216675
0.823;-0.0271606
0.824;-0.0326538
0.825;-0.038147
0.826;-0.0430298
0.827;-0.0473022
0.828;-0.0509644
0.829;-0.0543213
0.83;-0.0570679
0.831;-0.0592041
0.832;-0.0610352
0.833;-0.0619507
0.834;-0.062561
0.835;-0.062561
0.836;-0.0619507
0.837;-0.0613403
0.838;-0.0604248
0.839;-0.0595093
0.84;-0.0588989
0.841;-0.0585938
0.842;-0.0585938
0.843;-0.0588989
0.844;-0.0601196
0.845;-0.0613403
0.846;-0.0631714
0.847;-0.0650024
0.848;-0.0665283
0.849;-0.0680542
0.85;-0.0689697
0.851;-0.0698853
0.852;-0.071106
0.853;-0.0723267
0.854;-0.0741577
0.855;-0.0756836
0.856;-0.0772095
0.857;-0.0784302
0.858;-0.0799561
0.859;-0.0811768
0.86;-0.083313
0.861;-0.0854492
0.862;-0.0888062
0.863;-0.0933838
0.864;-0.098877
0.865;-0.105896
0.866;-0.113831
0.867;-0.122681
0.868;-0.132141
0.869;-0.141296
0.87;-0.150452
0.871;-0.158386
0.872;-0.1651
0.873;-0.169983
0.874;-0.172424
0.875;-0.172729
0.876;-0.170593
0.877;-0.16571
0.878;-0.158081
0.879;-0.146484
0.88;-0.13092
0.881;-0.110168
0.882;-0.0836182
0.883;-0.0506592
0.884;-0.0109863
0.885;0.0360107
0.886;0.0900269
0.887;0.150757
0.888;0.218811
0.889;0.293579
0.89;0.375366
0.891;0.463257
0.892;0.556335
0.893;0.652466
0.894;0.748596
0.895;0.84198
0.896;0.929871
0.897;1.01105
0.898;1.08459
0.899;1.1496
0.9;1.20605
0.901;1.25336
0.902;1.29028
0.903;1.31714
0.904;1.33301
0.905;1.33667
0.906;1.32782
0.907;1.30493
0.908;1.26801
0.909;1.21643
0.91;1.15112
0.911;1.0733
0.912;0.985107
0.913;0.888062
0.914;0.784607
0.915;0.677185
0.916;0.567932
0.917;0.459595
0.918;0.353088
0.919;0.250244
0.92;0.151672
0.921;0.0588989
0.922;-0.027771
0.923;-0.107422
0.924;-0.179443
0.925;-0.244141
0.926;-0.300903
0.927;-0.350342
0.928;-0.392151
0.929;-0.426636
0.93;-0.454407
0.931;-0.475159
0.932;-0.489502
0.933;-0.497437
0.934;-0.500488
0.935;-0.499268
0.936;-0.493774
0.937;-0.485229
0.938;-0.473633
0.939;-0.4599
0.94;-0.444336
0.941;-0.427246
0.942;-0.409241
0.943;-0.390625
0.944;-0.372009
0.945;-0.353699
0.946;-0.335693
0.947;-0.317993
0.948;-0.300903
0.949;-0.284729
0.95;-0.26886
0.951;-0.253906
0.952;-0.238953
0.953;-0.224915
0.954;-0.210876
0.955;-0.197754
0.956;-0.185547
0.957;-0.17395
0.958;-0.163574
0.959;-0.154419
0.96;-0.14679
0.961;-0.140381
0.962;-0.135498
0.963;-0.132141
0.964;-0.1297
0.965;-0.128479
0.966;-0.127563
0.967;-0.127258
0.968;-0.127563
0.969;-0.127869
0.97;-0.128479
0.971;-0.1297
0.972;-0.130615
0.973;-0.131836
0.974;-0.133057
0.975;-0.133972
0.976;-0.134888
0.977;-0.135803
0.978;-0.136414
0.979;-0.137024
0.98;-0.137634
0.981;-0.138245
0.982;-0.13855
0.983;-0.13855
0.984;-0.137634
0.985;-0.136414
0.986;-0.135193
0.987;-0.133362
0.988;-0.131531
0.989;-0.1297
0.99;-0.127869
0.991;-0.126038
0.992;-0.124207
0.993;-0.122375
0.994;-0.120544
0.995;-0.119019
0.996;-0.117493
0.997;-0.115356
0.998;-0.11261
0.999;-0.109253
1;-0.105286
1.001;-0.101013
1.002;-0.0964355
1.003;-0.0924683
1.004;-0.0888062
1.005;-0.085144
1.006;-0.0823975
1.007;-0.0799561
1.008;-0.0778198
1.009;-0.0759888
1.01;-0.0747681
1.011;-0.0735474
1.012;-0.0723267
1.013;-0.071106
1.014;-0.0701904
1.015;-0.0692749
1.016;-0.0683594
1.017;-0.0674438
1.018;-0.0665283
1.019;-0.065918
1.02;-0.0653076
1.021;-0.0650024
1.022;-0.0643921
1.023;-0.0640869
1.024;-0.0637817
1.025;-0.0637817
1.026;-0.0637817
1.027;-0.0637817
1.028;-0.0637817
1.029;-0.0634766
1.03;-0.062561
1.031;-0.0610352
1.032;-0.0588989
1.033;-0.0558472
1.034;-0.0524902
1.035;-0.0491333
1.036;-0.0460815
1.037;-0.0430298
1.038;-0.0402832
1.039;-0.0375366
1.04;-0.03479
1.041;-0.0323486
1.042;-0.0302124
1.043;-0.0280762
1.044;-0.0262451
1.045;-0.0244141
1.046;-0.022583
1.047;-0.020752
1.048;-0.0192261
1.049;-0.017395
1.05;-0.0158691
1.051;-0.0140381
1.052;-0.012207
1.053;-0.010376
1.054;-0.0088501
1.055;-0.00762939
1.056;-0.00640869
1.057;-0.00518799
1.058;-0.00396729
1.059;-0.00244141
1.06;-0.000610352
1.061;0.0012207
1.062;0.00366211
1.063;0.00640869
1.064;0.00946045
1.065;0.0128174
1.066;0.0164795
1.067;0.0201416
1.068;0.0238037
1.069;0.0271606
1.07;0.0305176
1.071;0.0335693
1.072;0.0366211
1.073;0.0396729
1.074;0.0421143
1.075;0.0448608
1.076;0.0473022
1.077;0.0497437
1.078;0.0521851
1.079;0.0543213
1.08;0.0561523
1.081;0.0576782
1.082;0.0592041
1.083;0.06073
1.084;0.0619507
1.085;0.0628662
1.086;0.0637817
1.087;0.0643921
1.088;0.0646973
1.089;0.0650024
1.09;0.0646973
1.091;0.0643921
1.092;0.0640869
1.093;0.0634766
1.094;0.0631714
1.095;0.0628662
1.096;0.062561
1.097;0.0619507
1.098;0.0613403
1.099;0.0604248
1.1;0.0595093
1.101;0.0588989
1.102;0.0582886
1.103;0.0582886
1.104;0.0579834
1.105;0.0579834
1.106;0.0582886
1.107;0.0585938
1.108;0.0585938
1.109;0.0588989
1.11;0.0588989
1.111;0.0588989
1.112;0.0585938
1.113;0.0579834
1.114;0.0570679
1.115;0.0564575
1.116;0.0558472
1.117;0.0552368
1.118;0.0546265
1.119;0.0540161
1.12;0.0527954
1.121;0.0509644
1.122;0.0485229
1.123;0.045166
1.124;0.0411987
1.125;0.0366211
1.126;0.0317383
1.127;0.0271606
1.128;0.0231934
1.129;0.0195312
1.13;0.0164795
1.131;0.0137329
1.132;0.0106812
1.133;0.00793457
1.134;0.00518799
1.135;0.00274658
1.136;0.000610352
1.137;-0.00152588
1.138;-0.00305176
1.139;-0.00457764
1.14;-0.00579834
1.141;-0.00671387
1.142;-0.00671387
1.143;-0.00671387
1.144;-0.00640869
1.145;-0.00579834
1.146;-0.00549316
1.147;-0.00518799
1.148;-0.00488281
1.149;-0.00518799
1.15;-0.00549316
1.151;-0.00671387
1.152;-0.00823975
1.153;-0.0109863
1.154;-0.0140381
1.155;-0.017395
1.156;-0.0210571
1.157;-0.0241089
1.158;-0.0271606
1.159;-0.0296021
1.16;-0.0323486
1.161;-0.03479
1.162;-0.0372314
1.163;-0.0393677
1.164;-0.0415039
1.165;-0.0436401
1.166;-0.0460815
1.167;-0.0482178
1.168;-0.0509644
1.169;-0.0531006
1.17;-0.0552368
1.171;-0.0570679
1.172;-0.0579834
1.173;-0.0588989
1.174;-0.0592041
1.175;-0.0592041
1.176;-0.0588989
1.177;-0.0585938
1.178;-0.0582886
1.179;-0.0579834
1.18;-0.0579834
1.181;-0.0579834
1.182;-0.0579834
1.183;-0.0582886
1.184;-0.0582886
1.185;-0.0582886
1.186;-0.0579834
1.187;-0.0576782
1.188;-0.0570679
1.189;-0.0567627
1.19;-0.0561523
1.191;-0.0558472
1.192;-0.0552368
1.193;-0.0549316
1.194;-0.0546265
1.195;-0.0546265
1.196;-0.0549316
1.197;-0.055542
1.198;-0.0561523
1.199;-0.0567627
1.2;-0.0576782
1.201;-0.0582886
1.202;-0.0592041
1.203;-0.0598145
1.204;-0.0604248
1.205;-0.06073
1.206;-0.06073
1.207;-0.0601196
1.208;-0.0592041
1.209;-0.0579834
1.21;-0.0564575
1.211;-0.0549316
1.212;-0.0531006
1.213;-0.0515747
1.214;-0.0500488
1.215;-0.0488281
1.216;-0.0469971
1.217;-0.045166
1.218;-0.0430298
1.219;-0.0402832
1.22;-0.0375366
1.221;-0.0344849
1.222;-0.0317383
1.223;-0.0289917
1.224;-0.0268555
1.225;-0.0247192
1.226;-0.0231934
1.227;-0.0219727
1.228;-0.020752
1.229;-0.0198364
1.23;-0.0186157
1.231;-0.017395
1.232;-0.0164795
1.233;-0.0161743
1.234;-0.0164795
1.235;-0.0170898
1.236;-0.0180054
1.237;-0.0195312
1.238;-0.0213623
1.239;-0.0228882
1.24;-0.0244141
1.241;-0.0259399
1.242;-0.0271606
1.243;-0.0280762
1.244;-0.0286865
1.245;-0.0289917
1.246;-0.0292969
1.247;-0.0292969
1.248;-0.0292969
1.249;-0.0289917
1.25;-0.0289917
1.251;-0.0286865
1.252;-0.0283813
1.253;-0.027771
1.254;-0.0268555
1.255;-0.0253296
1.256;-0.0238037
1.257;-0.0219727
1.258;-0.0201416
1.259;-0.0189209
1.26;-0.0177002
1.261;-0.0167847
1.262;-0.0158691
1.263;-0.0149536
1.264;-0.0143433
1.265;-0.0140381
1.266;-0.0137329
1.267;-0.0140381
1.268;-0.0146484
1.269;-0.015564
1.27;-0.0164795
1.271;-0.017395
1.272;-0.0183105
1.273;-0.0195312
1.274;-0.020752
1.275;-0.0222778
1.276;-0.0241089
1.277;-0.0262451
1.278;-0.0280762
1.279;-0.0299072
1.28;-0.0314331
1.281;-0.032959
1.282;-0.0341797
1.283;-0.0350952
1.284;-0.0363159
1.285;-0.0372314
1.286;-0.0378418
1.287;-0.038147
1.288;-0.038147
1.289;-0.0375366
1.29;-0.0369263
1.291;-0.0363159
1.292;-0.0357056
1.293;-0.0350952
1.294;-0.0344849
1.295;-0.0335693
1.296;-0.0320435
1.297;-0.0299072
1.298;-0.0274658
1.299;-0.0247192
1.3;-0.0219727
1.301;-0.0192261
1.302;-0.0167847
1.303;-0.0149536
1.304;-0.0134277
1.305;-0.012207
1.306;-0.0112915
1.307;-0.0106812
1.308;-0.010376
1.309;-0.0106812
1.31;-0.0109863
1.311;-0.0115967
1.312;-0.0115967
1.313;-0.0119019
1.314;-0.0115967
1.315;-0.0112915
1.316;-0.0109863
1.317;-0.010376
1.318;-0.00976562
1.319;-0.0088501
1.32;-0.00762939
1.321;-0.00610352
1.322;-0.00427246
1.323;-0.00152588
1.324;0.00183105
1.325;0.00579834
1.326;0.0100708
1.327;0.0146484
1.328;0.0195312
1.329;0.0250244
1.33;0.0308228
1.331;0.0369263
1.332;0.0427246
1.333;0.0485229
1.334;0.0531006
1.335;0.0570679
1.336;0.0601196
1.337;0.0619507
1.338;0.0628662
1.339;0.0631714
1.34;0.062561
1.341;0.0616455
1.342;0.0601196
1.343;0.0576782
1.344;0.0549316
1.345;0.0515747
1.346;0.0473022
1.347;0.0424194
1.348;0.0369263
1.349;0.0311279
1.35;0.0259399
1.351;0.0210571
1.352;0.0167847
1.353;0.012207
1.354;0.00823975
1.355;0.00427246
1.356;0.000610352
1.357;-0.00244141
1.358;-0.00518799
1.359;-0.00793457
1.36;-0.0100708
1.361;-0.012207
1.362;-0.0140381
1.363;-0.015564
1.364;-0.0170898
1.365;-0.0186157
1.366;-0.0201416
1.367;-0.0219727
1.368;-0.0241089
1.369;-0.0265503
1.37;-0.0299072
1.371;-0.0332642
1.372;-0.0369263
1.373;-0.0405884
1.374;-0.0442505
1.375;-0.0482178
1.376;-0.0521851
1.377;-0.0564575
1.378;-0.06073
1.379;-0.0656128
1.38;-0.0704956
1.381;-0.0756836
1.382;-0.0805664
1.383;-0.0854492
1.384;-0.0894165
1.385;-0.0930786
1.386;-0.0961304
1.387;-0.0985718
1.388;-0.101013
1.389;-0.103455
1.39;-0.10498
1.391;-0.106201
1.392;-0.107117
1.393;-0.107422
1.394;-0.107727
1.395;-0.107727
1.396;-0.107727
1.397;-0.107422
1.398;-0.107117
1.399;-0.106201
1.4;-0.104675
1.401;-0.102539
1.402;-0.100098
1.403;-0.0973511
1.404;-0.0946045
1.405;-0.0924683
1.406;-0.0906372
1.407;-0.0897217
1.408;-0.0894165
1.409;-0.0897217
1.41;-0.0912476
1.411;-0.093689
1.412;-0.0964355
1.413;-0.100098
1.414;-0.104675
1.415;-0.109863
1.416;-0.115662
1.417;-0.122375
1.418;-0.129395
1.419;-0.137634
1.42;-0.14679
1.421;-0.15686
1.422;-0.168152
1.423;-0.179749
1.424;-0.19165
1.425;-0.202942
1.426;-0.213013
1.427;-0.221252
1.428;-0.227356
1.429;-0.230408
1.43;-0.230408
1.431;-0.227051
1.432;-0.220337
1.433;-0.210266
1.434;-0.196533
1.435;-0.178833
1.436;-0.157166
1.437;-0.13031
1.438;-0.0982666
1.439;-0.0604248
1.44;-0.0161743
1.441;0.03479
1.442;0.0921631
1.443;0.15625
1.444;0.227051
1.445;0.305176
1.446;0.390015
1.447;0.481262
1.448;0.577087
1.449;0.674438
1.45;0.770569
1.451;0.863037
1.452;0.949097
1.453;1.02844
1.454;1.09985
1.455;1.16302
1.456;1.21765
1.457;1.26282
1.458;1.29852
1.459;1.32355
1.46;1.33728
1.461;1.33881
1.462;1.3266
1.463;1.30035
1.464;1.25946
1.465;1.20361
1.466;1.13403
1.467;1.05225
1.468;0.959473
1.469;0.858154
1.47;0.750427
1.471;0.638733
1.472;0.526123
1.473;0.414734
1.474;0.305786
1.475;0.201416
1.476;0.102234
1.477;0.0088501
1.478;-0.0778198
1.479;-0.157471
1.48;-0.230103
1.481;-0.295105
1.482;-0.352478
1.483;-0.401917
1.484;-0.443115
1.485;-0.476379
1.486;-0.502014
1.487;-0.52002
1.488;-0.531311
1.489;-0.536194
1.49;-0.535889
1.491;-0.53009
1.492;-0.52002
1.493;-0.506287
1.494;-0.489807
1.495;-0.471191
1.496;-0.45105
1.497;-0.430908
1.498;-0.410156
1.499;-0.39032
1.5;-0.370789
1.501;-0.352478
1.502;-0.335083
1.503;-0.318909
1.504;-0.303345
1.505;-0.288391
1.506;-0.274048
1.507;-0.260315
1.508;-0.247192
1.509;-0.234375
1.51;-0.222778
1.511;-0.212097
1.512;-0.202332
1.513;-0.194092
1.514;-0.186768
1.515;-0.180664
1.516;-0.175476
1.517;-0.171204
1.518;-0.166931
1.519;-0.163574
1.52;-0.160522
1.521;-0.157776
1.522;-0.155945
1.523;-0.154419
1.524;-0.153503
1.525;-0.152893
1.526;-0.152588
1.527;-0.151978
1.528;-0.151672
1.529;-0.151672
1.53;-0.151367
1.531;-0.150757
1.532;-0.150452
1.533;-0.150146
1.534;-0.149536
1.535;-0.148926
1.536;-0.14801
1.537;-0.146484
1.538;-0.144958
1.539;-0.143127
1.54;-0.140991
1.541;-0.13916
1.542;-0.137024
1.543;-0.134888
1.544;-0.132751
1.545;-0.130615
1.546;-0.128784
1.547;-0.127258
1.548;-0.126038
1.549;-0.125122
1.55;-0.124512
1.551;-0.123596
1.552;-0.122681
1.553;-0.12207
1.554;-0.121765
1.555;-0.12207
1.556;-0.122681
1.557;-0.122986
1.558;-0.123596
1.559;-0.123596
1.56;-0.123291
1.561;-0.122681
1.562;-0.121155
1.563;-0.119019
1.564;-0.116272
1.565;-0.113525
1.566;-0.110474
1.567;-0.107422
1.568;-0.104065
1.569;-0.100403
1.57;-0.0961304
1.571;-0.0915527
1.572;-0.0866699
1.573;-0.0817871
1.574;-0.0769043
1.575;-0.0723267
1.576;-0.0683594
1.577;-0.0646973
1.578;-0.0619507
1.579;-0.0592041
1.58;-0.0570679
1.581;-0.0552368
1.582;-0.0537109
1.583;-0.0524902
1.584;-0.0512695
1.585;-0.050354
1.586;-0.0497437
1.587;-0.0494385
1.588;-0.0491333
1.589;-0.0491333
1.59;-0.0494385
1.591;-0.0494385
1.592;-0.0500488
1.593;-0.050354
1.594;-0.050354
1.595;-0.0500488
1.596;-0.0494385
1.597;-0.0485229
1.598;-0.0476074
1.599;-0.0469971
1.6;-0.0466919
1.601;-0.0466919
1.602;-0.0466919
1.603;-0.0466919
1.604;-0.0463867
1.605;-0.0457764
1.606;-0.0448608
1.607;-0.0436401
1.608;-0.0421143
1.609;-0.0402832
1.61;-0.0378418
1.611;-0.0350952
1.612;-0.0320435
1.613;-0.0286865
1.614;-0.0250244
1.615;-0.0210571
1.616;-0.0167847
1.617;-0.0125122
1.618;-0.00823975
1.619;-0.00366211
1.62;0.000915527
1.621;0.00579834
1.622;0.0109863
1.623;0.0161743
1.624;0.0210571
1.625;0.0256348
1.626;0.0299072
1.627;0.0335693
1.628;0.0366211
1.629;0.0393677
1.63;0.0424194
1.631;0.0454712
1.632;0.0485229
1.633;0.0512695
1.634;0.0534058
1.635;0.0549316
1.636;0.055542
1.637;0.0558472
1.638;0.055542
1.639;0.0552368
1.64;0.0552368
1.641;0.0549316
1.642;0.0552368
1.643;0.0552368
1.644;0.0552368
1.645;0.0552368
1.646;0.0552368
1.647;0.0549316
1.648;0.0543213
1.649;0.0534058
1.65;0.0521851
1.651;0.0512695
1.652;0.0506592
1.653;0.050354
1.654;0.050354
1.655;0.0509644
1.656;0.0515747
1.657;0.0524902
1.658;0.0531006
1.659;0.0540161
1.66;0.0549316
1.661;0.0558472
1.662;0.0567627
1.663;0.0579834
1.664;0.0588989
1.665;0.0592041
1.666;0.0592041
1.667;0.0582886
1.668;0.0567627
1.669;0.0546265
1.67;0.0521851
1.671;0.0491333
1.672;0.0463867
1.673;0.043335
1.674;0.0402832
1.675;0.0366211
1.676;0.032959
1.677;0.0292969
1.678;0.0259399
1.679;0.022583
1.68;0.0192261
1.681;0.0158691
1.682;0.0128174
1.683;0.00946045
1.684;0.00640869
1.685;0.00366211
1.686;0.000610352
1.687;-0.00183105
1.688;-0.00396729
1.689;-0.00579834
1.69;-0.00732422
1.691;-0.00854492
1.692;-0.00976562
1.693;-0.010376
1.694;-0.0115967
1.695;-0.0125122
1.696;-0.0137329
1.697;-0.0149536
1.698;-0.0158691
1.699;-0.0164795
1.7;-0.0170898
1.701;-0.0183105
1.702;-0.0201416
1.703;-0.022583
1.704;-0.0259399
1.705;-0.0296021
1.706;-0.0335693
1.707;-0.0372314
1.708;-0.0408936
1.709;-0.0439453
1.71;-0.0466919
1.711;-0.0488281
1.712;-0.0506592
1.713;-0.0524902
1.714;-0.0540161
1.715;-0.0558472
1.716;-0.057373
1.717;-0.0585938
1.718;-0.0601196
1.719;-0.0610352
1.72;-0.0622559
1.721;-0.0628662
1.722;-0.0631714
1.723;-0.0631714
1.724;-0.0628662
1.725;-0.0622559
1.726;-0.0616455
1.727;-0.0610352
1.728;-0.0610352
1.729;-0.0613403
1.73;-0.0619507
1.731;-0.0631714
1.732;-0.0640869
1.733;-0.0653076
1.734;-0.0665283
1.735;-0.067749
1.736;-0.0689697
1.737;-0.0701904
1.738;-0.0717163
1.739;-0.0726318
1.74;-0.0735474
1.741;-0.0738525
1.742;-0.0738525
1.743;-0.0732422
1.744;-0.0726318
1.745;-0.0720215
1.746;-0.0717163
1.747;-0.0717163
1.748;-0.0717163
1.749;-0.0723267
1.75;-0.0723267
1.751;-0.0723267
1.752;-0.0723267
1.753;-0.0717163
1.754;-0.0714111
1.755;-0.0708008
1.756;-0.0704956
1.757;-0.0704956
1.758;-0.0708008
1.759;-0.0714111
1.76;-0.0720215
1.761;-0.0726318
1.762;-0.0726318
1.763;-0.0726318
1.764;-0.0720215
1.765;-0.071106
1.766;-0.0698853
1.767;-0.0683594
1.768;-0.0662231
1.769;-0.0637817
1.77;-0.0610352
1.771;-0.0579834
1.772;-0.0552368
1.773;-0.0521851
1.774;-0.0497437
1.775;-0.0476074
1.776;-0.0460815
1.777;-0.0448608
1.778;-0.0439453
1.779;-0.0436401
1.78;-0.043335
1.781;-0.043335
1.782;-0.0439453
1.783;-0.0445557
1.784;-0.045166
1.785;-0.0457764
1.786;-0.0463867
1.787;-0.0473022
1.788;-0.0485229
1.789;-0.0500488
1.79;-0.0512695
1.791;-0.0524902
1.792;-0.0537109
1.793;-0.0543213
1.794;-0.0546265
1.795;-0.0543213
1.796;-0.0540161
1.797;-0.0534058
1.798;-0.0527954
1.799;-0.0518799
1.8;-0.0506592
1.801;-0.0494385
1.802;-0.0479126
1.803;-0.0463867
1.804;-0.0445557
1.805;-0.0427246
1.806;-0.0411987
1.807;-0.0393677
1.808;-0.0375366
1.809;-0.0360107
1.81;-0.03479
1.811;-0.0335693
1.812;-0.0326538
1.813;-0.0320435
1.814;-0.0314331
1.815;-0.0308228
1.816;-0.0308228
1.817;-0.0305176
1.818;-0.0302124
1.819;-0.0302124
1.82;-0.0299072
1.821;-0.0296021
1.822;-0.0296021
1.823;-0.0296021
1.824;-0.0296021
1.825;-0.0296021
1.826;-0.0292969
1.827;-0.0292969
1.828;-0.0292969
1.829;-0.0302124
1.83;-0.0314331
1.831;-0.0335693
1.832;-0.0360107
1.833;-0.0384521
1.834;-0.0411987
1.835;-0.0436401
1.836;-0.0463867
1.837;-0.0491333
1.838;-0.0515747
1.839;-0.0537109
1.84;-0.0558472
1.841;-0.057373
1.842;-0.0588989
1.843;-0.0601196
1.844;-0.06073
1.845;-0.0610352
1.846;-0.06073
1.847;-0.0601196
1.848;-0.0585938
1.849;-0.0570679
1.85;-0.0552368
1.851;-0.0531006
1.852;-0.0506592
1.853;-0.0482178
1.854;-0.0454712
1.855;-0.0430298
1.856;-0.0405884
1.857;-0.0387573
1.858;-0.0372314
1.859;-0.0360107
1.86;-0.0354004
1.861;-0.0354004
1.862;-0.0363159
1.863;-0.038147
1.864;-0.0402832
1.865;-0.0430298
1.866;-0.0463867
1.867;-0.0497437
1.868;-0.0531006
1.869;-0.0561523
1.87;-0.0588989
1.871;-0.0610352
1.872;-0.0628662
1.873;-0.0640869
1.874;-0.0650024
1.875;-0.065918
1.876;-0.0662231
1.877;-0.0665283
1.878;-0.0662231
1.879;-0.065918
1.88;-0.0653076
1.881;-0.0650024
1.882;-0.0640869
1.883;-0.0631714
1.884;-0.0622559
1.885;-0.0616455
1.886;-0.0610352
1.887;-0.06073
1.888;-0.0604248
1.889;-0.0604248
1.89;-0.0604248
1.891;-0.0604248
1.892;-0.06073
1.893;-0.0613403
1.894;-0.0616455
1.895;-0.0619507
1.896;-0.0619507
1.897;-0.0613403
1.898;-0.06073
1.899;-0.0595093
1.9;-0.0579834
1.901;-0.0564575
1.902;-0.0546265
1.903;-0.0521851
1.904;-0.0494385
1.905;-0.0460815
1.906;-0.0424194
1.907;-0.0384521
1.908;-0.0338745
1.909;-0.0289917
1.91;-0.0241089
1.911;-0.0192261
1.912;-0.0146484
1.913;-0.0100708
1.914;-0.00610352
1.915;-0.00305176
1.916;0
1.917;0.00244141
1.918;0.00488281
1.919;0.00701904
1.92;0.0088501
1.921;0.010376
1.922;0.0115967
1.923;0.0131226
1.924;0.0146484
1.925;0.0161743
1.926;0.0177002
1.927;0.0189209
1.928;0.0201416
1.929;0.0210571
1.93;0.0216675
1.931;0.0222778
1.932;0.0231934
1.933;0.0241089
1.934;0.0250244
1.935;0.0259399
1.936;0.0268555
1.937;0.027771
1.938;0.0289917
1.939;0.0302124
1.94;0.0308228
1.941;0.0314331
1.942;0.0314331
1.943;0.0314331
1.944;0.0311279
1.945;0.0308228
1.946;0.0299072
1.947;0.0283813
1.948;0.0265503
1.949;0.0244141
1.95;0.0222778
1.951;0.0201416
1.952;0.0183105
1.953;0.0164795
1.954;0.0143433
1.955;0.0125122
1.956;0.0106812
1.957;0.0088501
1.958;0.00701904
1.959;0.00518799
1.96;0.00274658
1.961;0.000305176
1.962;-0.00244141
1.963;-0.00488281
1.964;-0.00701904
1.965;-0.0088501
1.966;-0.010376
1.967;-0.0115967
1.968;-0.0131226
1.969;-0.0146484
1.97;-0.0161743
1.971;-0.0183105
1.972;-0.020752
1.973;-0.0238037
1.974;-0.0274658
1.975;-0.0314331
1.976;-0.0357056
1.977;-0.039978
1.978;-0.0445557
1.979;-0.0488281
1.98;-0.0527954
1.981;-0.0570679
1.982;-0.0610352
1.983;-0.0653076
1.984;-0.0698853
1.985;-0.0741577
1.986;-0.0790405
1.987;-0.0836182
1.988;-0.0881958
1.989;-0.0921631
1.99;-0.0958252
1.991;-0.0985718
1.992;-0.100708
1.993;-0.101929
1.994;-0.102539
1.995;-0.103149
1.996;-0.102844
1.997;-0.101929
1.998;-0.101013
1.999;-0.0994873
2;-0.0979614
2.001;-0.0967407
2.002;-0.09552
2.003;-0.0942993
2.004;-0.0927734
2.005;-0.0912476
2.006;-0.0900269
2.007;-0.0888062
2.008;-0.0878906
2.009;-0.0878906
2.01;-0.0881958
2.011;-0.0894165
2.012;-0.0915527
2.013;-0.0939941
2.014;-0.0970459
2.015;-0.100708
2.016;-0.105286
2.017;-0.110779
2.018;-0.117188
2.019;-0.125122
2.02;-0.134277
2.021;-0.144348
2.022;-0.154724
2.023;-0.16571
2.024;-0.176697
2.025;-0.187683
2.026;-0.197449
2.027;-0.205994
2.028;-0.212708
2.029;-0.217285
2.03;-0.218811
2.031;-0.21759
2.032;-0.213623
2.033;-0.206909
2.034;-0.196533
2.035;-0.18219
2.036;-0.163269
2.037;-0.138855
2.038;-0.108337
2.039;-0.0717163
2.04;-0.0280762
2.041;0.022583
2.042;0.0796509
2.043;0.143738
2.044;0.214844
2.045;0.292664
2.046;0.377502
2.047;0.46875
2.048;0.56488
2.049;0.663452
2.05;0.761719
2.051;0.857544
2.052;0.947571
2.053;1.03058
2.054;1.10565
2.055;1.17157
2.056;1.22803
2.057;1.27502
2.058;1.31134
2.059;1.33698
2.06;1.35132
2.061;1.35345
2.062;1.34216
2.063;1.31653
2.064;1.27594
2.065;1.2207
2.066;1.15143
2.067;1.06934
2.068;0.976562
2.069;0.874939
2.07;0.767212
2.071;0.655823
2.072;0.542908
2.073;0.431213
2.074;0.321655
2.075;0.21637
2.076;0.115967
2.077;0.0213623
2.078;-0.0665283
2.079;-0.147095
2.08;-0.220032
2.081;-0.285339
2.082;-0.342407
2.083;-0.39093
2.084;-0.431519
2.085;-0.464478
2.086;-0.489502
2.087;-0.507812
2.088;-0.519409
2.089;-0.525208
2.09;-0.525208
2.091;-0.52063
2.092;-0.51239
2.093;-0.500488
2.094;-0.486145
2.095;-0.469971
2.096;-0.451965
2.097;-0.433044
2.098;-0.413513
2.099;-0.393677
2.1;-0.374146
2.101;-0.354919
2.102;-0.335999
2.103;-0.317993
2.104;-0.300903
2.105;-0.285034
2.106;-0.270081
2.107;-0.256348
2.108;-0.24353
2.109;-0.231628
2.11;-0.220642
2.111;-0.210571
2.112;-0.201721
2.113;-0.193481
2.114;-0.186462
2.115;-0.180359
2.116;-0.175476
2.117;-0.171814
2.118;-0.169067
2.119;-0.167236
2.12;-0.166321
2.121;-0.166016
2.122;-0.166016
2.123;-0.166321
2.124;-0.166626
2.125;-0.167236
2.126;-0.167847
2.127;-0.167847
2.128;-0.167542
2.129;-0.166931
2.13;-0.166321
2.131;-0.165405
2.132;-0.164185
2.133;-0.162659
2.134;-0.161133
2.135;-0.158997
2.136;-0.15686
2.137;-0.154724
2.138;-0.152893
2.139;-0.151367
2.14;-0.149841
2.141;-0.148315
2.142;-0.146484
2.143;-0.144348
2.144;-0.141602
2.145;-0.138855
2.146;-0.136108
2.147;-0.133667
2.148;-0.131226
2.149;-0.129395
2.15;-0.127563
2.151;-0.126343
2.152;-0.125122
2.153;-0.124207
2.154;-0.123291
2.155;-0.122375
2.156;-0.121155
2.157;-0.120239
2.158;-0.119019
2.159;-0.117798
2.16;-0.116272
2.161;-0.114746
2.162;-0.11322
2.163;-0.112
2.164;-0.110779
2.165;-0.109558
2.166;-0.108032
2.167;-0.106812
2.168;-0.105286
2.169;-0.103455
2.17;-0.101624
2.171;-0.0991821
2.172;-0.0970459
2.173;-0.0946045
2.174;-0.0921631
2.175;-0.0897217
2.176;-0.0872803
2.177;-0.085144
2.178;-0.0830078
2.179;-0.0811768
2.18;-0.0793457
2.181;-0.078125
2.182;-0.0772095
2.183;-0.0765991
2.184;-0.0762939
2.185;-0.0762939
2.186;-0.0765991
2.187;-0.0769043
2.188;-0.0769043
2.189;-0.0772095
2.19;-0.0775146
2.191;-0.0775146
2.192;-0.0778198
2.193;-0.0775146
2.194;-0.0772095
2.195;-0.0765991
2.196;-0.0753784
2.197;-0.0744629
2.198;-0.072937
2.199;-0.071106
2.2;-0.0689697
2.201;-0.0665283
2.202;-0.0637817
2.203;-0.0610352
2.204;-0.0579834
2.205;-0.0552368
2.206;-0.0521851
2.207;-0.0494385
2.208;-0.0466919
2.209;-0.0442505
2.21;-0.0418091
2.211;-0.039978
2.212;-0.038147
2.213;-0.0366211
2.214;-0.03479
2.215;-0.032959
2.216;-0.0305176
2.217;-0.027771
2.218;-0.0247192
2.219;-0.0210571
2.22;-0.0180054
2.221;-0.0149536
2.222;-0.0125122
2.223;-0.010376
2.224;-0.00823975
2.225;-0.00640869
2.226;-0.00427246
2.227;-0.00213623
2.228;0
2.229;0.00274658
2.23;0.00549316
2.231;0.00854492
2.232;0.0115967
2.233;0.0146484
2.234;0.017395
2.235;0.0195312
2.236;0.0219727
2.237;0.0241089
2.238;0.0262451
2.239;0.0280762
2.24;0.0296021
2.241;0.0308228
2.242;0.0317383
2.243;0.0326538
2.244;0.0332642
2.245;0.0341797
2.246;0.0354004
2.247;0.0366211
2.248;0.0378418
2.249;0.0390625
2.25;0.0402832
2.251;0.0415039
2.252;0.0427246
2.253;0.0439453
2.254;0.0445557
2.255;0.0454712
2.256;0.0457764
2.257;0.0460815
2.258;0.0463867
2.259;0.0466919
2.26;0.0466919
2.261;0.0463867
2.262;0.045166
2.263;0.0436401
2.264;0.0418091
2.265;0.0396729
2.266;0.0372314
2.267;0.03479
2.268;0.0326538
2.269;0.0302124
2.27;0.0280762
2.271;0.0259399
2.272;0.0238037
2.273;0.0216675
2.274;0.0192261
2.275;0.0167847
2.276;0.0143433
2.277;0.0115967
2.278;0.0088501
2.279;0.00640869
2.28;0.00427246
2.281;0.00213623
2.282;0.000610352
2.283;-0.000915527
2.284;-0.00213623
2.285;-0.00305176
2.286;-0.00396729
2.287;-0.00488281
2.288;-0.00640869
2.289;-0.00762939
2.29;-0.00915527
2.291;-0.010376
2.292;-0.0119019
2.293;-0.0134277
2.294;-0.015564
2.295;-0.0177002
2.296;-0.0195312
2.297;-0.0216675
2.298;-0.0234985
2.299;-0.0250244
2.3;-0.0265503
2.301;-0.0280762
2.302;-0.0299072
2.303;-0.0314331
2.304;-0.0332642
2.305;-0.03479
2.306;-0.0360107
2.307;-0.0372314
2.308;-0.038147
2.309;-0.0393677
2.31;-0.0411987
2.311;-0.0430298
2.312;-0.045166
2.313;-0.0469971
2.314;-0.0491333
2.315;-0.0506592
2.316;-0.0524902
2.317;-0.0540161
2.318;-0.055542
2.319;-0.0570679
2.32;-0.0582886
2.321;-0.0598145
2.322;-0.0613403
2.323;-0.062561
2.324;-0.0640869
2.325;-0.0656128
2.326;-0.0674438
2.327;-0.0692749
2.328;-0.071106
2.329;-0.072937
2.33;-0.0741577
2.331;-0.0747681
2.332;-0.0753784
2.333;-0.0756836
2.334;-0.0759888
2.335;-0.0769043
2.336;-0.0778198
2.337;-0.0787354
2.338;-0.0799561
2.339;-0.0811768
2.34;-0.0823975
2.341;-0.083313
2.342;-0.0839233
2.343;-0.0842285
2.344;-0.0839233
2.345;-0.083313
2.346;-0.0827026
2.347;-0.0820923
2.348;-0.0814819
2.349;-0.0811768
2.35;-0.0805664
2.351;-0.0802612
2.352;-0.0799561
2.353;-0.0799561
2.354;-0.0799561
2.355;-0.0796509
2.356;-0.0793457
2.357;-0.0790405
2.358;-0.0787354
2.359;-0.0784302
2.36;-0.078125
2.361;-0.0775146
2.362;-0.0772095
2.363;-0.0765991
2.364;-0.0762939
2.365;-0.0759888
2.366;-0.0756836
2.367;-0.0753784
2.368;-0.0747681
2.369;-0.0744629
2.37;-0.0741577
2.371;-0.0741577
2.372;-0.0738525
2.373;-0.0732422
2.374;-0.0726318
2.375;-0.0717163
2.376;-0.0708008
2.377;-0.0695801
2.378;-0.0686646
2.379;-0.067749
2.38;-0.0668335
2.381;-0.0665283
2.382;-0.0662231
2.383;-0.065918
2.384;-0.065918
2.385;-0.0656128
2.386;-0.0653076
2.387;-0.0646973
2.388;-0.0640869
2.389;-0.0631714
2.39;-0.062561
2.391;-0.0619507
2.392;-0.0610352
2.393;-0.0601196
2.394;-0.0588989
2.395;-0.0576782
2.396;-0.0561523
2.397;-0.0540161
2.398;-0.0518799
2.399;-0.0494385
2.4;-0.0469971
2.401;-0.045166
2.402;-0.0436401
2.403;-0.0424194
2.404;-0.0415039
2.405;-0.0402832
2.406;-0.0396729
2.407;-0.0393677
2.408;-0.0393677
2.409;-0.039978
2.41;-0.0408936
2.411;-0.0418091
2.412;-0.0427246
2.413;-0.0436401
2.414;-0.0445557
2.415;-0.0454712
2.416;-0.0463867
2.417;-0.0473022
2.418;-0.0476074
2.419;-0.0479126
2.42;-0.0476074
2.421;-0.0476074
2.422;-0.0469971
2.423;-0.0466919
2.424;-0.0463867
2.425;-0.0457764
2.426;-0.0445557
2.427;-0.0430298
2.428;-0.0415039
2.429;-0.039978
2.43;-0.0384521
2.431;-0.0372314
2.432;-0.0357056
2.433;-0.03479
2.434;-0.0344849
2.435;-0.03479
2.436;-0.0357056
2.437;-0.0375366
2.438;-0.0393677
2.439;-0.0415039
2.44;-0.0436401
2.441;-0.0457764
2.442;-0.0482178
2.443;-0.0500488
2.444;-0.0518799
2.445;-0.0537109
2.446;-0.0552368
2.447;-0.0567627
2.448;-0.0582886
2.449;-0.0598145
2.45;-0.0610352
2.451;-0.0619507
2.452;-0.062561
2.453;-0.0628662
2.454;-0.0628662
2.455;-0.062561
2.456;-0.0619507
2.457;-0.0613403
2.458;-0.06073
2.459;-0.06073
2.46;-0.06073
2.461;-0.06073
2.462;-0.06073
2.463;-0.06073
2.464;-0.06073
2.465;-0.06073
2.466;-0.0613403
2.467;-0.0619507
2.468;-0.062561
2.469;-0.0631714
2.47;-0.0637817
2.471;-0.0643921
2.472;-0.0650024
2.473;-0.0653076
2.474;-0.0656128
2.475;-0.0656128
2.476;-0.065918
2.477;-0.0656128
2.478;-0.0656128
2.479;-0.0653076
2.48;-0.0646973
2.481;-0.0640869
2.482;-0.0628662
2.483;-0.0610352
2.484;-0.0592041
2.485;-0.0576782
2.486;-0.0564575
2.487;-0.0561523
2.488;-0.0564575
2.489;-0.057373
2.49;-0.0582886
2.491;-0.0595093
2.492;-0.0604248
2.493;-0.0619507
2.494;-0.0637817
2.495;-0.065918
2.496;-0.0686646
2.497;-0.0717163
2.498;-0.0744629
2.499;-0.0772095
2.5;-0.0799561
2.501;-0.0823975
2.502;-0.0845337
2.503;-0.0869751
2.504;-0.0891113
2.505;-0.0906372
2.506;-0.0918579
2.507;-0.0924683
2.508;-0.0924683
2.509;-0.0921631
2.51;-0.0909424
2.511;-0.0894165
2.512;-0.0875854
2.513;-0.0857544
2.514;-0.0842285
2.515;-0.0823975
2.516;-0.0805664
2.517;-0.0787354
2.518;-0.0769043
2.519;-0.0753784
2.52;-0.0738525
2.521;-0.0723267
2.522;-0.0717163
2.523;-0.071106
2.524;-0.0708008
2.525;-0.0704956
2.526;-0.0698853
2.527;-0.0683594
2.528;-0.065918
2.529;-0.0628662
2.53;-0.0595093
2.531;-0.0561523
2.532;-0.0527954
2.533;-0.0497437
2.534;-0.0463867
2.535;-0.0427246
2.536;-0.0387573
2.537;-0.0344849
2.538;-0.0305176
2.539;-0.0265503
2.54;-0.0231934
2.541;-0.0198364
2.542;-0.0167847
2.543;-0.0143433
2.544;-0.0119019
2.545;-0.0100708
2.546;-0.00854492
2.547;-0.00762939
2.548;-0.00671387
2.549;-0.00579834
2.55;-0.00488281
2.551;-0.00396729
2.552;-0.00244141
2.553;-0.000915527
2.554;0.000915527
2.555;0.00274658
2.556;0.00457764
2.557;0.00701904
2.558;0.00946045
2.559;0.012207
2.56;0.0149536
2.561;0.0180054
2.562;0.020752
2.563;0.0238037
2.564;0.0262451
2.565;0.0286865
2.566;0.0305176
2.567;0.0320435
2.568;0.032959
2.569;0.0332642
2.57;0.032959
2.571;0.0320435
2.572;0.0305176
2.573;0.0286865
2.574;0.0262451
2.575;0.0234985
2.576;0.0210571
2.577;0.0186157
2.578;0.0164795
2.579;0.0143433
2.58;0.012207
2.581;0.0100708
2.582;0.00762939
2.583;0.00457764
2.584;0.00152588
2.585;-0.00152588
2.586;-0.00457764
2.587;-0.00701904
2.588;-0.00946045
2.589;-0.0115967
2.59;-0.0137329
2.591;-0.0158691
2.592;-0.0183105
2.593;-0.0216675
2.594;-0.0250244
2.595;-0.0289917
2.596;-0.0326538
2.597;-0.0366211
2.598;-0.0405884
2.599;-0.0445557
2.6;-0.0488281
2.601;-0.0531006
2.602;-0.057373
2.603;-0.0613403
2.604;-0.0653076
2.605;-0.0692749
2.606;-0.0732422
2.607;-0.0775146
2.608;-0.0814819
2.609;-0.0854492
2.61;-0.0891113
2.611;-0.0924683
2.612;-0.0952148
2.613;-0.0976562
2.614;-0.0997925
2.615;-0.101318
2.616;-0.102844
2.617;-0.10376
2.618;-0.10437
2.619;-0.10498
2.62;-0.10498
2.621;-0.104675
2.622;-0.104065
2.623;-0.103455
2.624;-0.102539
2.625;-0.101624
2.626;-0.101013
2.627;-0.101013
2.628;-0.101318
2.629;-0.101929
2.63;-0.102234
2.631;-0.102234
2.632;-0.102234
2.633;-0.102234
2.634;-0.102539
2.635;-0.103455
2.636;-0.104675
2.637;-0.106506
2.638;-0.108643
2.639;-0.111389
2.64;-0.114136
2.641;-0.117188
2.642;-0.120544
2.643;-0.124207
2.644;-0.128174
2.645;-0.132751
2.646;-0.137634
2.647;-0.143127
2.648;-0.149536
2.649;-0.156555
2.65;-0.163879
2.651;-0.171814
2.652;-0.179749
2.653;-0.187683
2.654;-0.194702
2.655;-0.200195
2.656;-0.204163
2.657;-0.205994
2.658;-0.205688
2.659;-0.202942
2.66;-0.197754
2.661;-0.189209
2.662;-0.177002
2.663;-0.160522
2.664;-0.13916
2.665;-0.11261
2.666;-0.0799561
2.667;-0.0411987
2.668;0.00427246
2.669;0.0564575
2.67;0.115662
2.671;0.18219
2.672;0.255737
2.673;0.336914
2.674;0.42511
2.675;0.519409
2.676;0.617676
2.677;0.717163
2.678;0.81543
2.679;0.909424
2.68;0.997314
2.681;1.07788
2.682;1.1499
2.683;1.21277
2.684;1.26587
2.685;1.30859
2.686;1.34064
2.687;1.36108
2.688;1.36932
2.689;1.36475
2.69;1.34552
2.691;1.31134
2.692;1.2619
2.693;1.19751
2.694;1.11969
2.695;1.03027
2.696;0.931396
2.697;0.8255
2.698;0.714722
2.699;0.601501
2.7;0.488281
2.701;0.377197
2.702;0.269165
2.703;0.16571
2.704;0.067749
2.705;-0.0238037
2.706;-0.108643
2.707;-0.185852
2.708;-0.254822
2.709;-0.315857
2.71;-0.368347
2.711;-0.413208
2.712;-0.450439
2.713;-0.479736
2.714;-0.502014
2.715;-0.517883
2.716;-0.527039
2.717;-0.531006
2.718;-0.52948
2.719;-0.523682
2.72;-0.513916
2.721;-0.500793
2.722;-0.485229
2.723;-0.467834
2.724;-0.448914
2.725;-0.429382
2.726;-0.409241
2.727;-0.388794
2.728;-0.368958
2.729;-0.349426
2.73;-0.330811
2.731;-0.31311
2.732;-0.296631
2.733;-0.281372
2.734;-0.267334
2.735;-0.254517
2.736;-0.242615
2.737;-0.232239
2.738;-0.222473
2.739;-0.213928
2.74;-0.205994
2.741;-0.198975
2.742;-0.192871
2.743;-0.187683
2.744;-0.183411
2.745;-0.179749
2.746;-0.177002
2.747;-0.174866
2.748;-0.173035
2.749;-0.171814
2.75;-0.170898
2.751;-0.169983
2.752;-0.169373
2.753;-0.168762
2.754;-0.167847
2.755;-0.166931
2.756;-0.16571
2.757;-0.164795
2.758;-0.163879
2.759;-0.162964
2.76;-0.162048
2.761;-0.160828
2.762;-0.159607
2.763;-0.158386
2.764;-0.157166
2.765;-0.15625
2.766;-0.155029
2.767;-0.154114
2.768;-0.152893
2.769;-0.151672
2.77;-0.150452
2.771;-0.148926
2.772;-0.1474
2.773;-0.145569
2.774;-0.143433
2.775;-0.141296
2.776;-0.139465
2.777;-0.137939
2.778;-0.137024
2.779;-0.136414
2.78;-0.135803
2.781;-0.135498
2.782;-0.135193
2.783;-0.135193
2.784;-0.135498
2.785;-0.135803
2.786;-0.136108
2.787;-0.136414
2.788;-0.136414
2.789;-0.136414
2.79;-0.135803
2.791;-0.134888
2.792;-0.133972
2.793;-0.132751
2.794;-0.131836
2.795;-0.130615
2.796;-0.1297
2.797;-0.128174
2.798;-0.126953
2.799;-0.125122
2.8;-0.122986
2.801;-0.12085
2.802;-0.118713
2.803;-0.116577
2.804;-0.114441
2.805;-0.11261
2.806;-0.110779
2.807;-0.108948
2.808;-0.107117
2.809;-0.105286
2.81;-0.103149
2.811;-0.101318
2.812;-0.098877
2.813;-0.0964355
2.814;-0.0939941
2.815;-0.0915527
2.816;-0.0891113
2.817;-0.0869751
2.818;-0.0848389
2.819;-0.083313
2.82;-0.0817871
2.821;-0.0802612
2.822;-0.078125
2.823;-0.0759888
2.824;-0.0735474
2.825;-0.071106
2.826;-0.0683594
2.827;-0.065918
2.828;-0.0631714
2.829;-0.0604248
2.83;-0.0582886
2.831;-0.0567627
2.832;-0.055542
2.833;-0.0546265
2.834;-0.0534058
2.835;-0.0521851
2.836;-0.0506592
2.837;-0.0488281
2.838;-0.0469971
2.839;-0.0448608
2.84;-0.0424194
2.841;-0.039978
2.842;-0.0372314
2.843;-0.0344849
2.844;-0.0320435
2.845;-0.0292969
2.846;-0.0265503
2.847;-0.0238037
2.848;-0.0210571
2.849;-0.0183105
2.85;-0.015564
2.851;-0.0125122
2.852;-0.00976562
2.853;-0.00701904
2.854;-0.00427246
2.855;-0.00152588
2.856;0.0012207
2.857;0.00366211
2.858;0.00640869
2.859;0.0088501
2.86;0.0112915
2.861;0.0134277
2.862;0.015564
2.863;0.017395
2.864;0.0186157
2.865;0.0195312
2.866;0.0204468
2.867;0.0216675
2.868;0.022583
2.869;0.0234985
2.87;0.0241089
2.871;0.0241089
2.872;0.0247192
2.873;0.0253296
2.874;0.0262451
2.875;0.027771
2.876;0.0289917
2.877;0.0305176
2.878;0.0320435
2.879;0.0332642
2.88;0.0341797
2.881;0.0350952
2.882;0.0360107
2.883;0.0366211
2.884;0.0372314
2.885;0.0378418
2.886;0.0384521
2.887;0.0387573
2.888;0.0390625
2.889;0.0387573
2.89;0.0384521
2.891;0.038147
2.892;0.0375366
2.893;0.0366211
2.894;0.0360107
2.895;0.0350952
2.896;0.0335693
2.897;0.0317383
2.898;0.0296021
2.899;0.0271606
2.9;0.0244141
2.901;0.0213623
2.902;0.0183105
2.903;0.0152588
2.904;0.0125122
2.905;0.0100708
2.906;0.00762939
2.907;0.00488281
2.908;0.00274658
2.909;0.000305176
2.91;-0.00183105
2.911;-0.00335693
2.912;-0.00518799
2.913;-0.00671387
2.914;-0.00793457
2.915;-0.00915527
2.916;-0.0100708
2.917;-0.0106812
2.918;-0.0109863
2.919;-0.0112915
2.92;-0.0115967
2.921;-0.012207
2.922;-0.0128174
2.923;-0.0134277
2.924;-0.0146484
2.925;-0.0164795
2.926;-0.0186157
2.927;-0.0210571
2.928;-0.0238037
2.929;-0.0265503
2.93;-0.0289917
2.931;-0.0314331
2.932;-0.0338745
2.933;-0.0369263
2.934;-0.0396729
2.935;-0.0430298
2.936;-0.0460815
2.937;-0.0488281
2.938;-0.0512695
2.939;-0.0534058
2.94;-0.055542
2.941;-0.0570679
2.942;-0.0582886
2.943;-0.0592041
2.944;-0.0595093
2.945;-0.0595093
2.946;-0.0592041
2.947;-0.0592041
2.948;-0.0592041
2.949;-0.0598145
2.95;-0.0604248
2.951;-0.0616455
2.952;-0.0631714
2.953;-0.0646973
2.954;-0.0662231
2.955;-0.0674438
2.956;-0.0686646
2.957;-0.0701904
2.958;-0.0717163
2.959;-0.0738525
2.96;-0.0759888
2.961;-0.0784302
2.962;-0.0805664
2.963;-0.0827026
2.964;-0.0842285
2.965;-0.0854492
2.966;-0.0863647
2.967;-0.0866699
2.968;-0.0869751
2.969;-0.0866699
2.97;-0.0860596
2.971;-0.085144
2.972;-0.0839233
2.973;-0.0827026
2.974;-0.0808716
2.975;-0.0790405
2.976;-0.0772095
2.977;-0.0759888
2.978;-0.0750732
2.979;-0.0747681
2.98;-0.0747681
2.981;-0.0750732
2.982;-0.0753784
2.983;-0.0756836
2.984;-0.0759888
2.985;-0.0762939
2.986;-0.0765991
2.987;-0.0772095
2.988;-0.0778198
2.989;-0.0784302
2.99;-0.0787354
2.991;-0.0787354
2.992;-0.0784302
2.993;-0.078125
2.994;-0.0772095
2.995;-0.0759888
2.996;-0.0744629
2.997;-0.0723267
2.998;-0.0695801
2.999;-0.0665283
3;-0.0631714
3.001;-0.0595093
3.002;-0.0561523
3.003;-0.0527954
3.004;-0.0500488
3.005;-0.0473022
3.006;-0.045166
3.007;-0.0436401
3.008;-0.0427246
3.009;-0.0421143
3.01;-0.0424194
3.011;-0.0430298
3.012;-0.0445557
3.013;-0.0463867
3.014;-0.0485229
3.015;-0.0512695
3.016;-0.0540161
3.017;-0.0558472
3.018;-0.057373
3.019;-0.0579834
3.02;-0.0579834
3.021;-0.057373
3.022;-0.0564575
3.023;-0.0558472
3.024;-0.0552368
3.025;-0.0546265
3.026;-0.0540161
3.027;-0.0534058
3.028;-0.0524902
3.029;-0.0515747
3.03;-0.0506592
3.031;-0.0497437
3.032;-0.0488281
3.033;-0.0485229
3.034;-0.0485229
3.035;-0.0485229
3.036;-0.0491333
3.037;-0.0500488
3.038;-0.0509644
3.039;-0.0524902
3.04;-0.0543213
3.041;-0.0564575
3.042;-0.0588989
3.043;-0.0616455
3.044;-0.0640869
3.045;-0.065918
3.046;-0.0671387
3.047;-0.0671387
3.048;-0.0665283
3.049;-0.0646973
3.05;-0.0622559
3.051;-0.0595093
3.052;-0.0567627
3.053;-0.0543213
3.054;-0.0518799
3.055;-0.0500488
3.056;-0.0485229
3.057;-0.0473022
3.058;-0.0463867
3.059;-0.0463867
3.06;-0.0466919
3.061;-0.0473022
3.062;-0.0482178
3.063;-0.0494385
3.064;-0.0506592
3.065;-0.0518799
3.066;-0.0534058
3.067;-0.0549316
3.068;-0.0564575
3.069;-0.0579834
3.07;-0.0592041
3.071;-0.0601196
3.072;-0.0610352
3.073;-0.0616455
3.074;-0.0619507
3.075;-0.0622559
3.076;-0.0619507
3.077;-0.0619507
3.078;-0.0613403
3.079;-0.06073
3.08;-0.0601196
3.081;-0.0592041
3.082;-0.0588989
3.083;-0.0585938
3.084;-0.0588989
3.085;-0.0598145
3.086;-0.0610352
3.087;-0.0628662
3.088;-0.0650024
3.089;-0.0671387
3.09;-0.0692749
3.091;-0.0714111
3.092;-0.0732422
3.093;-0.0753784
3.094;-0.0775146
3.095;-0.0796509
3.096;-0.0814819
3.097;-0.0830078
3.098;-0.0845337
3.099;-0.085144
3.1;-0.0854492
3.101;-0.085144
3.102;-0.0845337
3.103;-0.083313
3.104;-0.0814819
3.105;-0.0799561
3.106;-0.0778198
3.107;-0.0762939
3.108;-0.0744629
3.109;-0.0732422
3.11;-0.0720215
3.111;-0.0714111
3.112;-0.071106
3.113;-0.071106
3.114;-0.071106
3.115;-0.0714111
3.116;-0.0714111
3.117;-0.0714111
3.118;-0.071106
3.119;-0.0708008
3.12;-0.0704956
3.121;-0.0701904
3.122;-0.0701904
3.123;-0.0701904
3.124;-0.0708008
3.125;-0.0714111
3.126;-0.0717163
3.127;-0.0720215
3.128;-0.0723267
3.129;-0.0723267
3.13;-0.0726318
3.131;-0.0735474
3.132;-0.0744629
3.133;-0.0756836
3.134;-0.0769043
3.135;-0.078125
3.136;-0.0787354
3.137;-0.0793457
3.138;-0.0796509
3.139;-0.0799561
3.14;-0.0805664
3.141;-0.0814819
3.142;-0.0827026
3.143;-0.0836182
3.144;-0.0845337
3.145;-0.085144
3.146;-0.0854492
3.147;-0.0854492
3.148;-0.085144
3.149;-0.0845337
3.15;-0.0836182
3.151;-0.0823975
3.152;-0.0808716
3.153;-0.0790405
3.154;-0.0772095
3.155;-0.0753784
3.156;-0.0732422
3.157;-0.071106
3.158;-0.0689697
3.159;-0.0671387
3.16;-0.0653076
3.161;-0.0640869
3.162;-0.0628662
3.163;-0.0622559
3.164;-0.0619507
3.165;-0.0619507
3.166;-0.0622559
3.167;-0.0631714
3.168;-0.0640869
3.169;-0.0653076
3.17;-0.0665283
3.171;-0.0674438
3.172;-0.0686646
3.173;-0.0695801
3.174;-0.0701904
3.175;-0.071106
3.176;-0.0717163
3.177;-0.0726318
3.178;-0.0735474
3.179;-0.0744629
3.18;-0.0750732
3.181;-0.0750732
3.182;-0.0753784
3.183;-0.0750732
3.184;-0.0747681
3.185;-0.0744629
3.186;-0.0738525
3.187;-0.072937
3.188;-0.0720215
3.189;-0.071106
3.19;-0.0701904
3.191;-0.0692749
3.192;-0.0686646
3.193;-0.0680542
3.194;-0.0680542
3.195;-0.0680542
3.196;-0.0680542
3.197;-0.0680542
3.198;-0.0680542
3.199;-0.0680542
3.2;-0.0680542
3.201;-0.0680542
3.202;-0.0680542
3.203;-0.0683594
3.204;-0.0689697
3.205;-0.0692749
3.206;-0.0698853
3.207;-0.0698853
3.208;-0.0695801
3.209;-0.0686646
3.21;-0.067749
3.211;-0.0665283
3.212;-0.0656128
3.213;-0.0646973
3.214;-0.0640869
3.215;-0.0634766
3.216;-0.062561
3.217;-0.0616455
3.218;-0.0604248
3.219;-0.0595093
3.22;-0.0588989
3.221;-0.0585938
3.222;-0.0588989
3.223;-0.0592041
3.224;-0.0592041
3.225;-0.0592041
3.226;-0.0588989
3.227;-0.0585938
3.228;-0.0585938
3.229;-0.0588989
3.23;-0.0595093
3.231;-0.0610352
3.232;-0.062561
3.233;-0.0640869
3.234;-0.0656128
3.235;-0.0662231
3.236;-0.0665283
3.237;-0.0662231
3.238;-0.0653076
3.239;-0.0637817
3.24;-0.0619507
3.241;-0.0598145
3.242;-0.057373
3.243;-0.0549316
3.244;-0.0515747
3.245;-0.0482178
3.246;-0.0445557
3.247;-0.0405884
3.248;-0.0363159
3.249;-0.0320435
3.25;-0.027771
3.251;-0.0238037
3.252;-0.0201416
3.253;-0.0164795
3.254;-0.0134277
3.255;-0.010376
3.256;-0.00762939
3.257;-0.00518799
3.258;-0.00305176
3.259;-0.0012207
3.26;0.000305176
3.261;0.00152588
3.262;0.00213623
3.263;0.00274658
3.264;0.00305176
3.265;0.00396729
3.266;0.00518799
3.267;0.00671387
3.268;0.0088501
3.269;0.0106812
3.27;0.0128174
3.271;0.0152588
3.272;0.017395
3.273;0.0192261
3.274;0.020752
3.275;0.0222778
3.276;0.0234985
3.277;0.0241089
3.278;0.0250244
3.279;0.0256348
3.28;0.0265503
3.281;0.0274658
3.282;0.0280762
3.283;0.0283813
3.284;0.0283813
3.285;0.0274658
3.286;0.0262451
3.287;0.0244141
3.288;0.022583
3.289;0.020752
3.29;0.0192261
3.291;0.017395
3.292;0.0158691
3.293;0.0137329
3.294;0.0119019
3.295;0.00976562
3.296;0.00793457
3.297;0.00610352
3.298;0.00457764
3.299;0.00274658
3.3;0.00152588
3.301;0.000305176
3.302;-0.000610352
3.303;-0.00183105
3.304;-0.00335693
3.305;-0.00549316
3.306;-0.00854492
3.307;-0.012207
3.308;-0.0164795
3.309;-0.0213623
3.31;-0.0265503
3.311;-0.0317383
3.312;-0.0366211
3.313;-0.0408936
3.314;-0.0445557
3.315;-0.0479126
3.316;-0.0512695
3.317;-0.0546265
3.318;-0.0579834
3.319;-0.0616455
3.32;-0.0650024
3.321;-0.0686646
3.322;-0.0720215
3.323;-0.0750732
3.324;-0.0778198
3.325;-0.0799561
3.326;-0.0814819
3.327;-0.0823975
3.328;-0.0830078
3.329;-0.083313
3.33;-0.0830078
3.331;-0.0823975
3.332;-0.0814819
3.333;-0.0808716
3.334;-0.0799561
3.335;-0.0796509
3.336;-0.0793457
3.337;-0.0796509
3.338;-0.0802612
3.339;-0.0811768
3.34;-0.0820923
3.341;-0.0830078
3.342;-0.0836182
3.343;-0.0842285
3.344;-0.0848389
3.345;-0.0854492
3.346;-0.0863647
3.347;-0.0875854
3.348;-0.0891113
3.349;-0.0906372
3.35;-0.0921631
3.351;-0.0942993
3.352;-0.0967407
3.353;-0.100403
3.354;-0.104675
3.355;-0.109863
3.356;-0.115967
3.357;-0.122375
3.358;-0.129395
3.359;-0.137024
3.36;-0.144958
3.361;-0.153503
3.362;-0.162048
3.363;-0.170593
3.364;-0.178223
3.365;-0.184937
3.366;-0.19043
3.367;-0.193481
3.368;-0.194092
3.369;-0.191345
3.37;-0.184937
3.371;-0.175171
3.372;-0.161743
3.373;-0.144348
3.374;-0.122986
3.375;-0.0967407
3.376;-0.0646973
3.377;-0.0262451
3.378;0.0195312
3.379;0.0726318
3.38;0.133972
3.381;0.202332
3.382;0.27832
3.383;0.361328
3.384;0.451355
3.385;0.54718
3.386;0.647888
3.387;0.750427
3.388;0.852661
3.389;0.952454
3.39;1.04736
3.391;1.13617
3.392;1.21735
3.393;1.29059
3.394;1.35468
3.395;1.40839
3.396;1.45081
3.397;1.48132
3.398;1.49902
3.399;1.50299
3.4;1.4917
3.401;1.46454
3.402;1.42059
3.403;1.36078
3.404;1.2854
3.405;1.19659
3.406;1.09619
3.407;0.986633
3.408;0.870667
3.409;0.750732
3.41;0.628967
3.411;0.507507
3.412;0.388489
3.413;0.273132
3.414;0.162659
3.415;0.0579834
3.416;-0.0396729
3.417;-0.129089
3.418;-0.209656
3.419;-0.281067
3.42;-0.343018
3.421;-0.395203
3.422;-0.437927
3.423;-0.471802
3.424;-0.497131
3.425;-0.514526
3.426;-0.524597
3.427;-0.528564
3.428;-0.526733
3.429;-0.520325
3.43;-0.509644
3.431;-0.4953
3.432;-0.477905
3.433;-0.458374
3.434;-0.437622
3.435;-0.41626
3.436;-0.394897
3.437;-0.37323
3.438;-0.352173
3.439;-0.332031
3.44;-0.31311
3.441;-0.295105
3.442;-0.278625
3.443;-0.263062
3.444;-0.248413
3.445;-0.234985
3.446;-0.222168
3.447;-0.210571
3.448;-0.199585
3.449;-0.190125
3.45;-0.18158
3.451;-0.174255
3.452;-0.168457
3.453;-0.163879
3.454;-0.160828
3.455;-0.158691
3.456;-0.157776
3.457;-0.157471
3.458;-0.157776
3.459;-0.158386
3.46;-0.158997
3.461;-0.159912
3.462;-0.160828
3.463;-0.161743
3.464;-0.162354
3.465;-0.162354
3.466;-0.162354
3.467;-0.162354
3.468;-0.162048
3.469;-0.162048
3.47;-0.162048
3.471;-0.162048
3.472;-0.162048
3.473;-0.162354
3.474;-0.162659
3.475;-0.162964
3.476;-0.163269
3.477;-0.163269
3.478;-0.162659
3.479;-0.161743
3.48;-0.160522
3.481;-0.159302
3.482;-0.158081
3.483;-0.156555
3.484;-0.155029
3.485;-0.153198
3.486;-0.151367
3.487;-0.149536
3.488;-0.147705
3.489;-0.146179
3.49;-0.144348
3.491;-0.142517
3.492;-0.140381
3.493;-0.138855
3.494;-0.137329
3.495;-0.136414
3.496;-0.135803
3.497;-0.135193
3.498;-0.134888
3.499;-0.134277
3.5;-0.133972
3.501;-0.133667
3.502;-0.133057
3.503;-0.132751
3.504;-0.132751
3.505;-0.132446
3.506;-0.132446
3.507;-0.132141
3.508;-0.131226
3.509;-0.1297
3.51;-0.127258
3.511;-0.124207
3.512;-0.120544
3.513;-0.116577
3.514;-0.11261
3.515;-0.108643
3.516;-0.104675
3.517;-0.100708
3.518;-0.0967407
3.519;-0.0927734
3.52;-0.0891113
3.521;-0.0860596
3.522;-0.083313
3.523;-0.0808716
3.524;-0.0790405
3.525;-0.0772095
3.526;-0.0756836
3.527;-0.0738525
3.528;-0.0723267
3.529;-0.0708008
3.53;-0.0695801
3.531;-0.0683594
3.532;-0.0674438
3.533;-0.0668335
3.534;-0.0662231
3.535;-0.0656128
3.536;-0.0646973
3.537;-0.0637817
3.538;-0.062561
3.539;-0.0610352
3.54;-0.0592041
3.541;-0.057373
3.542;-0.055542
3.543;-0.0534058
3.544;-0.0518799
3.545;-0.0500488
3.546;-0.0482178
3.547;-0.0463867
3.548;-0.0442505
3.549;-0.0418091
3.55;-0.0387573
3.551;-0.0350952
3.552;-0.0311279
3.553;-0.0271606
3.554;-0.022583
3.555;-0.0183105
3.556;-0.0143433
3.557;-0.0100708
3.558;-0.00610352
3.559;-0.00213623
3.56;0.000915527
3.561;0.00366211
3.562;0.00549316
3.563;0.00701904
3.564;0.00762939
3.565;0.00823975
3.566;0.00854492
3.567;0.00946045
3.568;0.010376
3.569;0.0119019
3.57;0.0140381
3.571;0.0164795
3.572;0.0189209
3.573;0.0219727
3.574;0.0247192
3.575;0.0274658
3.576;0.0302124
3.577;0.032959
3.578;0.0360107
3.579;0.0396729
3.58;0.0439453
3.581;0.0488281
3.582;0.0537109
3.583;0.0588989
3.584;0.0634766
3.585;0.067749
3.586;0.071106
3.587;0.0735474
3.588;0.0747681
3.589;0.0744629
3.59;0.0732422
3.591;0.0714111
3.592;0.0686646
3.593;0.065918
3.594;0.062561
3.595;0.0588989
3.596;0.0549316
3.597;0.0506592
3.598;0.0466919
3.599;0.0427246
3.6;0.0390625
3.601;0.0360107
3.602;0.0335693
3.603;0.0317383
3.604;0.0308228
3.605;0.0305176
3.606;0.0308228
3.607;0.0311279
3.608;0.0317383
3.609;0.0326538
3.61;0.0335693
3.611;0.0341797
3.612;0.0344849
3.613;0.03479
3.614;0.03479
3.615;0.0344849
3.616;0.0341797
3.617;0.0332642
3.618;0.0320435
3.619;0.0305176
3.62;0.0280762
3.621;0.0259399
3.622;0.0231934
3.623;0.0201416
3.624;0.0170898
3.625;0.0140381
3.626;0.0109863
3.627;0.00823975
3.628;0.00579834
3.629;0.00335693
3.63;0.0012207
3.631;-0.000915527
3.632;-0.00305176
3.633;-0.00488281
3.634;-0.00671387
3.635;-0.00823975
3.636;-0.00976562
3.637;-0.0109863
3.638;-0.012207
3.639;-0.0131226
3.64;-0.0143433
3.641;-0.015564
3.642;-0.0167847
3.643;-0.0183105
3.644;-0.0204468
3.645;-0.0228882
3.646;-0.0259399
3.647;-0.0292969
3.648;-0.0323486
3.649;-0.0354004
3.65;-0.038147
3.651;-0.0405884
3.652;-0.0424194
3.653;-0.0439453
3.654;-0.0454712
3.655;-0.0466919
3.656;-0.0482178
3.657;-0.0500488
3.658;-0.0518799
3.659;-0.0534058
3.66;-0.0552368
3.661;-0.0567627
3.662;-0.0579834
3.663;-0.0588989
3.664;-0.0595093
3.665;-0.0598145
3.666;-0.0604248
3.667;-0.06073
3.668;-0.0616455
3.669;-0.062561
3.67;-0.0634766
3.671;-0.0640869
3.672;-0.0650024
3.673;-0.0656128
3.674;-0.0662231
3.675;-0.0668335
3.676;-0.0671387
3.677;-0.067749
3.678;-0.0680542
3.679;-0.0683594
3.68;-0.0686646
3.681;-0.0692749
3.682;-0.0695801
3.683;-0.0701904
3.684;-0.0708008
3.685;-0.071106
3.686;-0.071106
3.687;-0.0708008
3.688;-0.0708008
3.689;-0.0704956
3.69;-0.0698853
3.691;-0.0695801
3.692;-0.0689697
3.693;-0.0680542
3.694;-0.0671387
3.695;-0.0662231
3.696;-0.0653076
3.697;-0.0646973
3.698;-0.0643921
3.699;-0.0640869
3.7;-0.0640869
3.701;-0.0640869
3.702;-0.0637817
3.703;-0.0631714
3.704;-0.0622559
3.705;-0.0616455
3.706;-0.0610352
3.707;-0.06073
3.708;-0.06073
3.709;-0.0610352
3.71;-0.0613403
3.711;-0.0616455
3.712;-0.0619507
3.713;-0.0619507
3.714;-0.0619507
3.715;-0.0616455
3.716;-0.0610352
3.717;-0.0601196
3.718;-0.0588989
3.719;-0.0576782
3.72;-0.0567627
3.721;-0.0558472
3.722;-0.0549316
3.723;-0.0546265
3.724;-0.0540161
3.725;-0.0534058
3.726;-0.0524902
3.727;-0.0509644
3.728;-0.0494385
3.729;-0.0476074
3.73;-0.0460815
3.731;-0.0448608
3.732;-0.0439453
3.733;-0.043335
3.734;-0.0430298
3.735;-0.0427246
3.736;-0.0424194
3.737;-0.0421143
3.738;-0.0415039
3.739;-0.0408936
3.74;-0.0402832
3.741;-0.0396729
3.742;-0.0384521
3.743;-0.0372314
3.744;-0.0360107
3.745;-0.03479
3.746;-0.0341797
3.747;-0.0332642
3.748;-0.0326538
3.749;-0.0323486
3.75;-0.0320435
3.751;-0.0317383
3.752;-0.0314331
3.753;-0.0314331
3.754;-0.0314331
3.755;-0.0314331
3.756;-0.0314331
3.757;-0.0314331
3.758;-0.0314331
3.759;-0.0311279
3.76;-0.0311279
3.761;-0.0314331
3.762;-0.0320435
3.763;-0.0326538
3.764;-0.0332642
3.765;-0.0335693
3.766;-0.0335693
3.767;-0.0335693
3.768;-0.0335693
3.769;-0.0338745
3.77;-0.0338745
3.771;-0.0338745
3.772;-0.0338745
3.773;-0.0335693
3.774;-0.0335693
3.775;-0.0335693
3.776;-0.0335693
3.777;-0.0338745
3.778;-0.0338745
3.779;-0.0335693
3.78;-0.0332642
3.781;-0.0332642
3.782;-0.032959
3.783;-0.032959
3.784;-0.032959
3.785;-0.0332642
3.786;-0.0332642
3.787;-0.0338745
3.788;-0.0350952
3.789;-0.0363159
3.79;-0.038147
3.791;-0.039978
3.792;-0.0421143
3.793;-0.0442505
3.794;-0.0460815
3.795;-0.0479126
3.796;-0.0494385
3.797;-0.0506592
3.798;-0.0518799
3.799;-0.0527954
3.8;-0.0534058
3.801;-0.0540161
3.802;-0.0546265
3.803;-0.0552368
3.804;-0.055542
3.805;-0.0558472
3.806;-0.0558472
3.807;-0.0558472
3.808;-0.0552368
3.809;-0.0546265
3.81;-0.0534058
3.811;-0.0521851
3.812;-0.0506592
3.813;-0.0497437
3.814;-0.0491333
3.815;-0.0488281
3.816;-0.0488281
3.817;-0.0491333
3.818;-0.0500488
3.819;-0.0512695
3.82;-0.0524902
3.821;-0.0543213
3.822;-0.0561523
3.823;-0.0576782
3.824;-0.0595093
3.825;-0.0610352
3.826;-0.0622559
3.827;-0.0634766
3.828;-0.0640869
3.829;-0.0643921
3.83;-0.0643921
3.831;-0.0646973
3.832;-0.0646973
3.833;-0.0646973
3.834;-0.0643921
3.835;-0.0640869
3.836;-0.0631714
3.837;-0.0622559
3.838;-0.06073
3.839;-0.0592041
3.84;-0.0576782
3.841;-0.0564575
3.842;-0.055542
3.843;-0.0552368
3.844;-0.0552368
3.845;-0.055542
3.846;-0.0558472
3.847;-0.0561523
3.848;-0.0564575
3.849;-0.0564575
3.85;-0.0564575
3.851;-0.0561523
3.852;-0.0558472
3.853;-0.055542
3.854;-0.0552368
3.855;-0.0552368
3.856;-0.055542
3.857;-0.0564575
3.858;-0.057373
3.859;-0.0585938
3.86;-0.0592041
3.861;-0.0598145
3.862;-0.0601196
3.863;-0.0601196
3.864;-0.0598145
3.865;-0.0598145
3.866;-0.0598145
3.867;-0.0598145
3.868;-0.0598145
3.869;-0.0601196
3.87;-0.0604248
3.871;-0.06073
3.872;-0.0613403
3.873;-0.0622559
3.874;-0.0631714
3.875;-0.0643921
3.876;-0.065918
3.877;-0.0674438
3.878;-0.0686646
3.879;-0.0698853
3.88;-0.071106
3.881;-0.0720215
3.882;-0.0726318
3.883;-0.0726318
3.884;-0.0723267
3.885;-0.0720215
3.886;-0.0714111
3.887;-0.0704956
3.888;-0.0695801
3.889;-0.0686646
3.89;-0.0680542
3.891;-0.0674438
3.892;-0.0671387
3.893;-0.0665283
3.894;-0.0656128
3.895;-0.0643921
3.896;-0.0628662
3.897;-0.0604248
3.898;-0.0579834
3.899;-0.0552368
3.9;-0.0531006
3.901;-0.0512695
3.902;-0.0500488
3.903;-0.0494385
3.904;-0.0494385
3.905;-0.0497437
3.906;-0.0506592
3.907;-0.0518799
3.908;-0.0531006
3.909;-0.0543213
3.91;-0.0552368
3.911;-0.0561523
3.912;-0.0570679
3.913;-0.0579834
3.914;-0.0585938
3.915;-0.0592041
3.916;-0.0601196
3.917;-0.0604248
3.918;-0.0610352
3.919;-0.0616455
3.92;-0.0622559
3.921;-0.0628662
3.922;-0.0631714
3.923;-0.0634766
3.924;-0.0637817
3.925;-0.0637817
3.926;-0.0637817
3.927;-0.0634766
3.928;-0.0631714
3.929;-0.0628662
3.93;-0.062561
3.931;-0.0622559
3.932;-0.0616455
3.933;-0.0613403
3.934;-0.0610352
3.935;-0.06073
3.936;-0.0604248
3.937;-0.0604248
3.938;-0.0598145
3.939;-0.0588989
3.94;-0.0579834
3.941;-0.0570679
3.942;-0.0561523
3.943;-0.055542
3.944;-0.0549316
3.945;-0.0543213
3.946;-0.0540161
3.947;-0.0534058
3.948;-0.0527954
3.949;-0.0524902
3.95;-0.0521851
3.951;-0.0521851
3.952;-0.0521851
3.953;-0.0524902
3.954;-0.0527954
3.955;-0.0531006
3.956;-0.0537109
3.957;-0.0543213
3.958;-0.0549316
3.959;-0.0561523
3.96;-0.057373
3.961;-0.0582886
3.962;-0.0588989
3.963;-0.0598145
3.964;-0.06073
3.965;-0.0613403
3.966;-0.0619507
3.967;-0.062561
3.968;-0.0631714
3.969;-0.0634766
3.97;-0.0634766
3.971;-0.0634766
3.972;-0.0634766
3.973;-0.0631714
3.974;-0.0631714
3.975;-0.0631714
3.976;-0.0634766
3.977;-0.0637817
3.978;-0.0640869
3.979;-0.0637817
3.98;-0.0637817
3.981;-0.0631714
3.982;-0.0628662
3.983;-0.0622559
3.984;-0.0619507
3.985;-0.0616455
3.986;-0.0613403
3.987;-0.0613403
3.988;-0.0610352
3.989;-0.0610352
3.99;-0.0613403
3.991;-0.0613403
3.992;-0.0613403
3.993;-0.0610352
3.994;-0.06073
3.995;-0.0601196
3.996;-0.0595093
3.997;-0.0592041
3.998;-0.0588989
3.999;-0.0585938
4;-0.0582886
4.001;-0.057373
4.002;-0.0561523
4.003;-0.0543213
4.004;-0.0524902
4.005;-0.0500488
4.006;-0.0479126
4.007;-0.0460815
4.008;-0.0442505
4.009;-0.0430298
4.01;-0.0418091
4.011;-0.0402832
4.012;-0.0390625
4.013;-0.0375366
4.014;-0.0363159
4.015;-0.0354004
4.016;-0.03479
4.017;-0.0344849
4.018;-0.0338745
4.019;-0.0335693
4.02;-0.0332642
4.021;-0.0326538
4.022;-0.0323486
4.023;-0.0320435
4.024;-0.0314331
4.025;-0.0308228
4.026;-0.0296021
4.027;-0.0280762
4.028;-0.0262451
4.029;-0.0238037
4.03;-0.0213623
4.031;-0.0183105
4.032;-0.0152588
4.033;-0.0119019
4.034;-0.00823975
4.035;-0.00457764
4.036;-0.000915527
4.037;0.00305176
4.038;0.00701904
4.039;0.0106812
4.04;0.0140381
4.041;0.017395
4.042;0.0201416
4.043;0.0228882
4.044;0.0253296
4.045;0.027771
4.046;0.0302124
4.047;0.0323486
4.048;0.0341797
4.049;0.0354004
4.05;0.0363159
4.051;0.0369263
4.052;0.0375366
4.053;0.0378418
4.054;0.0387573
4.055;0.0396729
4.056;0.0405884
4.057;0.0411987
4.058;0.0421143
4.059;0.0427246
4.06;0.0430298
4.061;0.043335
4.062;0.043335
4.063;0.0430298
4.064;0.0427246
4.065;0.0421143
4.066;0.0415039
4.067;0.0408936
4.068;0.0402832
4.069;0.039978
4.07;0.0393677
4.071;0.0384521
4.072;0.0369263
4.073;0.03479
4.074;0.0326538
4.075;0.0305176
4.076;0.0283813
4.077;0.0259399
4.078;0.0234985
4.079;0.020752
4.08;0.0177002
4.081;0.0146484
4.082;0.0112915
4.083;0.00793457
4.084;0.00396729
4.085;0
4.086;-0.00396729
4.087;-0.00823975
4.088;-0.012207
4.089;-0.0164795
4.09;-0.020752
4.091;-0.0250244
4.092;-0.0292969
4.093;-0.0332642
4.094;-0.0369263
4.095;-0.0405884
4.096;-0.0436401
4.097;-0.0463867
4.098;-0.0488281
4.099;-0.0509644
4.1;-0.0534058
4.101;-0.055542
4.102;-0.0579834
4.103;-0.0601196
4.104;-0.0619507
4.105;-0.0637817
4.106;-0.0653076
4.107;-0.0665283
4.108;-0.0674438
4.109;-0.0683594
4.11;-0.0686646
4.111;-0.0689697
4.112;-0.0692749
4.113;-0.0692749
4.114;-0.0689697
4.115;-0.0689697
4.116;-0.0689697
4.117;-0.0689697
4.118;-0.0689697
4.119;-0.0689697
4.12;-0.0692749
4.121;-0.0689697
4.122;-0.0689697
4.123;-0.0683594
4.124;-0.067749
4.125;-0.0671387
4.126;-0.0668335
4.127;-0.0671387
4.128;-0.0683594
4.129;-0.0701904
4.13;-0.072937
4.131;-0.0762939
4.132;-0.0805664
4.133;-0.0857544
4.134;-0.0918579
4.135;-0.0991821
4.136;-0.107727
4.137;-0.117493
4.138;-0.128479
4.139;-0.140076
4.14;-0.151672
4.141;-0.162964
4.142;-0.173035
4.143;-0.180969
4.144;-0.186157
4.145;-0.188599
4.146;-0.187683
4.147;-0.183411
4.148;-0.175476
4.149;-0.163879
4.15;-0.147705
4.151;-0.126953
4.152;-0.100403
4.153;-0.0674438
4.154;-0.0274658
4.155;0.0198364
4.156;0.0753784
4.157;0.138245
4.158;0.20874
4.159;0.28656
4.16;0.371704
4.161;0.464172
4.162;0.56366
4.163;0.668945
4.164;0.777283
4.165;0.886536
4.166;0.994263
4.167;1.09772
4.168;1.19507
4.169;1.2851
4.17;1.36688
4.171;1.43982
4.172;1.50238
4.173;1.55396
4.174;1.59302
4.175;1.61896
4.176;1.62994
4.177;1.62476
4.178;1.60278
4.179;1.56311
4.18;1.50604
4.181;1.4325
4.182;1.3443
4.183;1.24298
4.184;1.13098
4.185;1.01044
4.186;0.884399
4.187;0.75531
4.188;0.625305
4.189;0.496826
4.19;0.371399
4.191;0.250549
4.192;0.135803
4.193;0.0286865
4.194;-0.0701904
4.195;-0.159607
4.196;-0.238647
4.197;-0.307312
4.198;-0.365295
4.199;-0.412292
4.2;-0.449219
4.201;-0.476685
4.202;-0.494995
4.203;-0.505066
4.204;-0.508118
4.205;-0.504761
4.206;-0.495605
4.207;-0.482178
4.208;-0.465088
4.209;-0.445557
4.21;-0.4245
4.211;-0.402222
4.212;-0.379944
4.213;-0.357666
4.214;-0.336304
4.215;-0.315857
4.216;-0.296936
4.217;-0.279541
4.218;-0.263672
4.219;-0.249023
4.22;-0.235901
4.221;-0.223999
4.222;-0.213318
4.223;-0.204163
4.224;-0.196533
4.225;-0.189819
4.226;-0.184326
4.227;-0.180054
4.228;-0.176697
4.229;-0.174255
4.23;-0.173035
4.231;-0.171814
4.232;-0.171204
4.233;-0.170898
4.234;-0.170288
4.235;-0.169983
4.236;-0.169678
4.237;-0.169067
4.238;-0.168152
4.239;-0.166931
4.24;-0.164795
4.241;-0.162659
4.242;-0.159912
4.243;-0.15686
4.244;-0.153503
4.245;-0.150146
4.246;-0.146484
4.247;-0.142822
4.248;-0.13855
4.249;-0.134583
4.25;-0.130615
4.251;-0.126953
4.252;-0.123596
4.253;-0.12085
4.254;-0.119019
4.255;-0.118408
4.256;-0.118408
4.257;-0.119324
4.258;-0.12085
4.259;-0.122681
4.26;-0.124207
4.261;-0.125427
4.262;-0.126343
4.263;-0.126953
4.264;-0.127563
4.265;-0.127869
4.266;-0.128174
4.267;-0.128479
4.268;-0.128479
4.269;-0.128174
4.27;-0.127563
4.271;-0.126343
4.272;-0.124512
4.273;-0.12207
4.274;-0.119324
4.275;-0.116272
4.276;-0.11322
4.277;-0.110168
4.278;-0.107117
4.279;-0.104065
4.28;-0.101013
4.281;-0.0979614
4.282;-0.09552
4.283;-0.0933838
4.284;-0.0918579
4.285;-0.0906372
4.286;-0.0900269
4.287;-0.0894165
4.288;-0.0891113
4.289;-0.0888062
4.29;-0.0888062
4.291;-0.088501
4.292;-0.0878906
4.293;-0.0869751
4.294;-0.0854492
4.295;-0.0839233
4.296;-0.0820923
4.297;-0.0799561
4.298;-0.0775146
4.299;-0.0747681
4.3;-0.0717163
4.301;-0.0686646
4.302;-0.0653076
4.303;-0.0622559
4.304;-0.0592041
4.305;-0.0561523
4.306;-0.0534058
4.307;-0.050354
4.308;-0.0476074
4.309;-0.045166
4.31;-0.0436401
4.311;-0.0430298
4.312;-0.0430298
4.313;-0.0436401
4.314;-0.0448608
4.315;-0.0460815
4.316;-0.0473022
4.317;-0.0482178
4.318;-0.0488281
4.319;-0.0491333
4.32;-0.0491333
4.321;-0.0491333
4.322;-0.0491333
4.323;-0.0485229
4.324;-0.0476074
4.325;-0.0460815
4.326;-0.0439453
4.327;-0.0411987
4.328;-0.038147
4.329;-0.0341797
4.33;-0.0299072
4.331;-0.0253296
4.332;-0.020752
4.333;-0.0161743
4.334;-0.0115967
4.335;-0.00671387
4.336;-0.00152588
4.337;0.00366211
4.338;0.00854492
4.339;0.0134277
4.34;0.017395
4.341;0.020752
4.342;0.0238037
4.343;0.0262451
4.344;0.0280762
4.345;0.0299072
4.346;0.0314331
4.347;0.0326538
4.348;0.0341797
4.349;0.0354004
4.35;0.0366211
4.351;0.038147
4.352;0.0393677
4.353;0.0405884
4.354;0.0415039
4.355;0.0421143
4.356;0.0427246
4.357;0.043335
4.358;0.0439453
4.359;0.0448608
4.36;0.0457764
4.361;0.0466919
4.362;0.0476074
4.363;0.0482178
4.364;0.0491333
4.365;0.050354
4.366;0.0512695
4.367;0.0524902
4.368;0.0540161
4.369;0.0552368
4.37;0.0567627
4.371;0.0582886
4.372;0.0598145
4.373;0.0613403
4.374;0.0628662
4.375;0.0640869
4.376;0.0646973
4.377;0.0646973
4.378;0.0640869
4.379;0.0634766
4.38;0.062561
4.381;0.0613403
4.382;0.0604248
4.383;0.0592041
4.384;0.0576782
4.385;0.0561523
4.386;0.0540161
4.387;0.0518799
4.388;0.0494385
4.389;0.0463867
4.39;0.0436401
4.391;0.0405884
4.392;0.0375366
4.393;0.0344849
4.394;0.0320435
4.395;0.0296021
4.396;0.027771
4.397;0.0262451
4.398;0.0250244
4.399;0.0244141
4.4;0.0238037
4.401;0.0234985
4.402;0.0234985
4.403;0.0238037
4.404;0.0238037
4.405;0.0238037
4.406;0.0238037
4.407;0.0238037
4.408;0.0231934
4.409;0.0228882
4.41;0.0222778
4.411;0.0213623
4.412;0.020752
4.413;0.0198364
4.414;0.0183105
4.415;0.0167847
4.416;0.0149536
4.417;0.0125122
4.418;0.00976562
4.419;0.00701904
4.42;0.00427246
4.421;0.00152588
4.422;-0.000915527
4.423;-0.00335693
4.424;-0.00579834
4.425;-0.00854492
4.426;-0.0109863
4.427;-0.0137329
4.428;-0.0161743
4.429;-0.0183105
4.43;-0.0201416
4.431;-0.0216675
4.432;-0.022583
4.433;-0.0234985
4.434;-0.0241089
4.435;-0.0247192
4.436;-0.0250244
4.437;-0.0259399
4.438;-0.0268555
4.439;-0.0283813
4.44;-0.0302124
4.441;-0.0320435
4.442;-0.0341797
4.443;-0.0360107
4.444;-0.0375366
4.445;-0.0390625
4.446;-0.0402832
4.447;-0.0418091
4.448;-0.0430298
4.449;-0.0442505
4.45;-0.0454712
4.451;-0.0466919
4.452;-0.0473022
4.453;-0.0482178
4.454;-0.0485229
4.455;-0.0488281
4.456;-0.0488281
4.457;-0.0485229
4.458;-0.0479126
4.459;-0.0469971
4.46;-0.0466919
4.461;-0.0460815
4.462;-0.0454712
4.463;-0.045166
4.464;-0.0448608
4.465;-0.0445557
4.466;-0.0442505
4.467;-0.0439453
4.468;-0.043335
4.469;-0.0424194
4.47;-0.0415039
4.471;-0.0405884
4.472;-0.0396729
4.473;-0.0387573
4.474;-0.0384521
4.475;-0.0378418
4.476;-0.0372314
4.477;-0.0366211
4.478;-0.0354004
4.479;-0.0341797
4.48;-0.0326538
4.481;-0.0314331
4.482;-0.0299072
4.483;-0.0286865
4.484;-0.0274658
4.485;-0.0262451
4.486;-0.0253296
4.487;-0.0247192
4.488;-0.0241089
4.489;-0.0241089
4.49;-0.0241089
4.491;-0.0241089
4.492;-0.0241089
4.493;-0.0241089
4.494;-0.0244141
4.495;-0.0250244
4.496;-0.0262451
4.497;-0.0274658
4.498;-0.0283813
4.499;-0.0289917
4.5;-0.0292969
4.501;-0.0292969
4.502;-0.0289917
4.503;-0.0283813
4.504;-0.0280762
4.505;-0.0274658
4.506;-0.0271606
4.507;-0.0274658
4.508;-0.0280762
4.509;-0.0286865
4.51;-0.0292969
4.511;-0.0296021
4.512;-0.0292969
4.513;-0.0283813
4.514;-0.0274658
4.515;-0.0259399
4.516;-0.0247192
4.517;-0.0234985
4.518;-0.022583
4.519;-0.0222778
4.52;-0.0219727
4.521;-0.0219727
4.522;-0.0219727
4.523;-0.0219727
4.524;-0.0219727
4.525;-0.0216675
4.526;-0.0210571
4.527;-0.0204468
4.528;-0.0198364
4.529;-0.0192261
4.53;-0.0186157
4.531;-0.0183105
4.532;-0.0180054
4.533;-0.0180054
4.534;-0.0180054
4.535;-0.0180054
4.536;-0.0183105
4.537;-0.0183105
4.538;-0.0189209
4.539;-0.0198364
4.54;-0.020752
4.541;-0.0222778
4.542;-0.0234985
4.543;-0.0244141
4.544;-0.0250244
4.545;-0.0247192
4.546;-0.0244141
4.547;-0.0238037
4.548;-0.0228882
4.549;-0.0222778
4.55;-0.0216675
4.551;-0.0210571
4.552;-0.020752
4.553;-0.0198364
4.554;-0.0192261
4.555;-0.0180054
4.556;-0.0164795
4.557;-0.0149536
4.558;-0.0134277
4.559;-0.0119019
4.56;-0.010376
4.561;-0.0088501
4.562;-0.00793457
4.563;-0.00732422
4.564;-0.00701904
4.565;-0.00732422
4.566;-0.00762939
4.567;-0.00854492
4.568;-0.00976562
4.569;-0.0112915
4.57;-0.0134277
4.571;-0.0161743
4.572;-0.0189209
4.573;-0.0219727
4.574;-0.0244141
4.575;-0.0265503
4.576;-0.0283813
4.577;-0.0302124
4.578;-0.0314331
4.579;-0.0323486
4.58;-0.0335693
4.581;-0.0341797
4.582;-0.0350952
4.583;-0.0357056
4.584;-0.0363159
4.585;-0.0363159
4.586;-0.0360107
4.587;-0.0357056
4.588;-0.0354004
4.589;-0.0350952
4.59;-0.0344849
4.591;-0.0341797
4.592;-0.0335693
4.593;-0.0332642
4.594;-0.0332642
4.595;-0.0335693
4.596;-0.0341797
4.597;-0.0350952
4.598;-0.0363159
4.599;-0.0375366
4.6;-0.0387573
4.601;-0.039978
4.602;-0.0415039
4.603;-0.0430298
4.604;-0.0439453
4.605;-0.0448608
4.606;-0.045166
4.607;-0.0457764
4.608;-0.0460815
4.609;-0.0466919
4.61;-0.0476074
4.611;-0.0488281
4.612;-0.0500488
4.613;-0.0509644
4.614;-0.0518799
4.615;-0.0521851
4.616;-0.0521851
4.617;-0.0518799
4.618;-0.0515747
4.619;-0.0515747
4.62;-0.0512695
4.621;-0.0512695
4.622;-0.0509644
4.623;-0.0509644
4.624;-0.0509644
4.625;-0.0506592
4.626;-0.0506592
4.627;-0.0509644
4.628;-0.0509644
4.629;-0.0509644
4.63;-0.0512695
4.631;-0.0515747
4.632;-0.0518799
4.633;-0.0518799
4.634;-0.0515747
4.635;-0.0512695
4.636;-0.0506592
4.637;-0.0497437
4.638;-0.0485229
4.639;-0.0476074
4.64;-0.0466919
4.641;-0.0457764
4.642;-0.0445557
4.643;-0.0436401
4.644;-0.0424194
4.645;-0.0408936
4.646;-0.0390625
4.647;-0.0372314
4.648;-0.0354004
4.649;-0.0335693
4.65;-0.0320435
4.651;-0.0305176
4.652;-0.0296021
4.653;-0.0292969
4.654;-0.0292969
4.655;-0.0296021
4.656;-0.0302124
4.657;-0.0317383
4.658;-0.0332642
4.659;-0.0354004
4.66;-0.0375366
4.661;-0.039978
4.662;-0.0424194
4.663;-0.0448608
4.664;-0.0473022
4.665;-0.0494385
4.666;-0.0512695
4.667;-0.0527954
4.668;-0.0537109
4.669;-0.0549316
4.67;-0.0558472
4.671;-0.0567627
4.672;-0.057373
4.673;-0.057373
4.674;-0.0567627
4.675;-0.0561523
4.676;-0.0552368
4.677;-0.0540161
4.678;-0.0524902
4.679;-0.0506592
4.68;-0.0494385
4.681;-0.0479126
4.682;-0.0466919
4.683;-0.0457764
4.684;-0.0448608
4.685;-0.0442505
4.686;-0.0439453
4.687;-0.0442505
4.688;-0.0445557
4.689;-0.0448608
4.69;-0.045166
4.691;-0.0457764
4.692;-0.0463867
4.693;-0.0473022
4.694;-0.0482178
4.695;-0.0494385
4.696;-0.050354
4.697;-0.0515747
4.698;-0.0527954
4.699;-0.0540161
4.7;-0.0552368
4.701;-0.0564575
4.702;-0.0570679
4.703;-0.057373
4.704;-0.0576782
4.705;-0.057373
4.706;-0.0570679
4.707;-0.0564575
4.708;-0.055542
4.709;-0.0543213
4.71;-0.0527954
4.711;-0.0512695
4.712;-0.0497437
4.713;-0.0479126
4.714;-0.0457764
4.715;-0.0436401
4.716;-0.0415039
4.717;-0.0396729
4.718;-0.038147
4.719;-0.0372314
4.72;-0.0360107
4.721;-0.0350952
4.722;-0.0341797
4.723;-0.0335693
4.724;-0.032959
4.725;-0.0326538
4.726;-0.032959
4.727;-0.0335693
4.728;-0.0344849
4.729;-0.0363159
4.73;-0.0384521
4.731;-0.0415039
4.732;-0.0448608
4.733;-0.0482178
4.734;-0.0518799
4.735;-0.0549316
4.736;-0.057373
4.737;-0.0592041
4.738;-0.0601196
4.739;-0.0604248
4.74;-0.0604248
4.741;-0.0601196
4.742;-0.0598145
4.743;-0.0595093
4.744;-0.0592041
4.745;-0.0592041
4.746;-0.0585938
4.747;-0.0579834
4.748;-0.0570679
4.749;-0.055542
4.75;-0.0534058
4.751;-0.0512695
4.752;-0.0485229
4.753;-0.0460815
4.754;-0.0436401
4.755;-0.0415039
4.756;-0.0396729
4.757;-0.038147
4.758;-0.0369263
4.759;-0.0357056
4.76;-0.0350952
4.761;-0.0344849
4.762;-0.0341797
4.763;-0.0338745
4.764;-0.0338745
4.765;-0.0338745
4.766;-0.0338745
4.767;-0.0341797
4.768;-0.0344849
4.769;-0.0344849
4.77;-0.0341797
4.771;-0.0335693
4.772;-0.0326538
4.773;-0.0314331
4.774;-0.0305176
4.775;-0.0296021
4.776;-0.0292969
4.777;-0.0289917
4.778;-0.0289917
4.779;-0.0286865
4.78;-0.0280762
4.781;-0.0268555
4.782;-0.0250244
4.783;-0.022583
4.784;-0.0195312
4.785;-0.0161743
4.786;-0.0125122
4.787;-0.00854492
4.788;-0.00457764
4.789;-0.000305176
4.79;0.00396729
4.791;0.00823975
4.792;0.0131226
4.793;0.0177002
4.794;0.0222778
4.795;0.0265503
4.796;0.0305176
4.797;0.0341797
4.798;0.0369263
4.799;0.0396729
4.8;0.0421143
4.801;0.0439453
4.802;0.0457764
4.803;0.0473022
4.804;0.0488281
4.805;0.0500488
4.806;0.0512695
4.807;0.0521851
4.808;0.0527954
4.809;0.0534058
4.81;0.0540161
4.811;0.0546265
4.812;0.0552368
4.813;0.055542
4.814;0.0552368
4.815;0.0549316
4.816;0.0546265
4.817;0.0546265
4.818;0.0546265
4.819;0.0546265
4.82;0.0549316
4.821;0.0549316
4.822;0.0543213
4.823;0.0531006
4.824;0.0512695
4.825;0.0488281
4.826;0.0457764
4.827;0.0421143
4.828;0.0384521
4.829;0.0344849
4.83;0.0305176
4.831;0.0262451
4.832;0.022583
4.833;0.0189209
4.834;0.015564
4.835;0.0128174
4.836;0.010376
4.837;0.00823975
4.838;0.00671387
4.839;0.00518799
4.84;0.00366211
4.841;0.00274658
4.842;0.00183105
4.843;0.000915527
4.844;-0.000305176
4.845;-0.00152588
4.846;-0.00274658
4.847;-0.00396729
4.848;-0.00518799
4.849;-0.00671387
4.85;-0.00823975
4.851;-0.0100708
4.852;-0.012207
4.853;-0.0146484
4.854;-0.0177002
4.855;-0.0210571
4.856;-0.0244141
4.857;-0.0280762
4.858;-0.0314331
4.859;-0.0354004
4.86;-0.0387573
4.861;-0.0421143
4.862;-0.0454712
4.863;-0.0482178
4.864;-0.0512695
4.865;-0.0540161
4.866;-0.0564575
4.867;-0.0585938
4.868;-0.0604248
4.869;-0.0616455
4.87;-0.0628662
4.871;-0.0640869
4.872;-0.0656128
4.873;-0.0668335
4.874;-0.0680542
4.875;-0.0689697
4.876;-0.0698853
4.877;-0.0708008
4.878;-0.071106
4.879;-0.0717163
4.88;-0.0723267
4.881;-0.072937
4.882;-0.0738525
4.883;-0.0747681
4.884;-0.0759888
4.885;-0.0775146
4.886;-0.0793457
4.887;-0.0811768
4.888;-0.0839233
4.889;-0.0869751
4.89;-0.090332
4.891;-0.0949097
4.892;-0.100403
4.893;-0.107117
4.894;-0.114746
4.895;-0.123596
4.896;-0.133057
4.897;-0.143433
4.898;-0.154114
4.899;-0.164185
4.9;-0.173035
4.901;-0.180054
4.902;-0.184937
4.903;-0.187378
4.904;-0.186768
4.905;-0.183411
4.906;-0.176697
4.907;-0.166626
4.908;-0.152283
4.909;-0.133362
4.91;-0.108948
4.911;-0.0787354
4.912;-0.0415039
4.913;0.00305176
4.914;0.0558472
4.915;0.116577
4.916;0.185242
4.917;0.261841
4.918;0.34668
4.919;0.439148
4.92;0.53894
4.921;0.644531
4.922;0.754395
4.923;0.865173
4.924;0.975037
4.925;1.08093
4.926;1.18164
4.927;1.27533
4.928;1.362
4.929;1.44012
4.93;1.5094
4.931;1.56769
4.932;1.61407
4.933;1.64673
4.934;1.66443
4.935;1.66595
4.936;1.65009
4.937;1.61621
4.938;1.56433
4.939;1.49536
4.94;1.41052
4.941;1.31195
4.942;1.20178
4.943;1.08276
4.944;0.957336
4.945;0.828247
4.946;0.697632
4.947;0.567627
4.948;0.439758
4.949;0.316162
4.95;0.197449
4.951;0.0857544
4.952;-0.0183105
4.953;-0.113525
4.954;-0.198669
4.955;-0.273743
4.956;-0.33783
4.957;-0.391235
4.958;-0.434265
4.959;-0.466919
4.96;-0.490417
4.961;-0.505371
4.962;-0.512695
4.963;-0.513306
4.964;-0.508118
4.965;-0.497742
4.966;-0.483398
4.967;-0.466003
4.968;-0.445862
4.969;-0.424194
4.97;-0.401917
4.971;-0.379639
4.972;-0.357361
4.973;-0.335693
4.974;-0.314941
4.975;-0.29541
4.976;-0.276794
4.977;-0.259705
4.978;-0.243835
4.979;-0.229492
4.98;-0.216675
4.981;-0.205383
4.982;-0.195312
4.983;-0.186768
4.984;-0.179443
4.985;-0.17334
4.986;-0.168152
4.987;-0.163879
4.988;-0.160522
4.989;-0.158081
4.99;-0.155945
4.991;-0.153809
4.992;-0.152283
4.993;-0.151062
4.994;-0.150452
4.995;-0.150452
4.996;-0.150452
4.997;-0.150452
4.998;-0.150452
4.999;-0.150146
5;-0.149231
5.001;-0.14801
5.002;-0.146179
5.003;-0.144043
5.004;-0.141602
5.005;-0.139465
5.006;-0.137634
5.007;-0.135498
5.008;-0.133972
5.009;-0.132446
5.01;-0.13092
5.011;-0.129395
5.012;-0.127869
5.013;-0.126343
5.014;-0.124512
5.015;-0.122986
5.016;-0.12146
5.017;-0.119934
5.018;-0.118713
5.019;-0.117493
5.02;-0.116272
5.021;-0.115356
5.022;-0.114136
5.023;-0.112915
5.024;-0.111694
5.025;-0.110474
5.026;-0.108948
5.027;-0.108032
5.028;-0.107422
5.029;-0.107422
5.03;-0.108337
5.031;-0.109253
5.032;-0.110474
5.033;-0.111389
5.034;-0.112305
5.035;-0.112915
5.036;-0.11322
5.037;-0.11322
5.038;-0.113525
5.039;-0.113525
5.04;-0.113525
5.041;-0.113525
5.042;-0.113525
5.043;-0.113525
5.044;-0.11322
5.045;-0.11261
5.046;-0.111084
5.047;-0.109558
5.048;-0.107422
5.049;-0.104675
5.05;-0.101929
5.051;-0.0985718
5.052;-0.0952148
5.053;-0.0921631
5.054;-0.0888062
5.055;-0.0854492
5.056;-0.0823975
5.057;-0.0796509
5.058;-0.0772095
5.059;-0.0750732
5.06;-0.0732422
5.061;-0.071106
5.062;-0.0695801
5.063;-0.0680542
5.064;-0.0665283
5.065;-0.0650024
5.066;-0.0634766
5.067;-0.0619507
5.068;-0.0604248
5.069;-0.0592041
5.07;-0.0579834
5.071;-0.0567627
5.072;-0.0552368
5.073;-0.0540161
5.074;-0.0527954
5.075;-0.0512695
5.076;-0.0497437
5.077;-0.0479126
5.078;-0.0457764
5.079;-0.0430298
5.08;-0.0396729
5.081;-0.0357056
5.082;-0.0317383
5.083;-0.0274658
5.084;-0.0234985
5.085;-0.0198364
5.086;-0.0164795
5.087;-0.0134277
5.088;-0.0106812
5.089;-0.00793457
5.09;-0.00518799
5.091;-0.00274658
5.092;0
5.093;0.00213623
5.094;0.00396729
5.095;0.00579834
5.096;0.00732422
5.097;0.00915527
5.098;0.0109863
5.099;0.0125122
5.1;0.0143433
5.101;0.0161743
5.102;0.0177002
5.103;0.0195312
5.104;0.020752
5.105;0.0222778
5.106;0.0238037
5.107;0.0253296
5.108;0.0274658
5.109;0.0296021
5.11;0.0326538
5.111;0.0363159
5.112;0.0405884
5.113;0.045166
5.114;0.0497437
5.115;0.0546265
5.116;0.0588989
5.117;0.0631714
5.118;0.0668335
5.119;0.0701904
5.12;0.0735474
5.121;0.0762939
5.122;0.0787354
5.123;0.0805664
5.124;0.0820923
5.125;0.0827026
5.126;0.0827026
5.127;0.0817871
5.128;0.0805664
5.129;0.0787354
5.13;0.0765991
5.131;0.0738525
5.132;0.071106
5.133;0.067749
5.134;0.0640869
5.135;0.06073
5.136;0.0576782
5.137;0.0543213
5.138;0.0512695
5.139;0.0482178
5.14;0.0454712
5.141;0.0430298
5.142;0.0411987
5.143;0.039978
5.144;0.0393677
5.145;0.0393677
5.146;0.0396729
5.147;0.039978
5.148;0.0405884
5.149;0.0408936
5.15;0.0411987
5.151;0.0415039
5.152;0.0418091
5.153;0.0418091
5.154;0.0418091
5.155;0.0418091
5.156;0.0408936
5.157;0.0396729
5.158;0.0375366
5.159;0.03479
5.16;0.0314331
5.161;0.0274658
5.162;0.0231934
5.163;0.0189209
5.164;0.0149536
5.165;0.0106812
5.166;0.00701904
5.167;0.00305176
5.168;-0.000610352
5.169;-0.00396729
5.17;-0.00671387
5.171;-0.00915527
5.172;-0.0109863
5.173;-0.0125122
5.174;-0.0137329
5.175;-0.0146484
5.176;-0.0149536
5.177;-0.0152588
5.178;-0.0152588
5.179;-0.0146484
5.18;-0.0140381
5.181;-0.0128174
5.182;-0.0112915
5.183;-0.00946045
5.184;-0.00762939
5.185;-0.00640869
5.186;-0.00518799
5.187;-0.00457764
5.188;-0.00457764
5.189;-0.00518799
5.19;-0.00640869
5.191;-0.00823975
5.192;-0.010376
5.193;-0.0125122
5.194;-0.0149536
5.195;-0.0177002
5.196;-0.0204468
5.197;-0.0231934
5.198;-0.0265503
5.199;-0.0299072
5.2;-0.0335693
5.201;-0.0369263
5.202;-0.0396729
5.203;-0.0421143
5.204;-0.0442505
5.205;-0.0457764
5.206;-0.0469971
5.207;-0.0479126
5.208;-0.0488281
5.209;-0.0497437
5.21;-0.0506592
5.211;-0.0518799
5.212;-0.0531006
5.213;-0.0543213
5.214;-0.0552368
5.215;-0.0558472
5.216;-0.0561523
5.217;-0.0564575
5.218;-0.0564575
5.219;-0.0564575
5.22;-0.0567627
5.221;-0.0567627
5.222;-0.0567627
5.223;-0.0567627
5.224;-0.0570679
5.225;-0.057373
5.226;-0.0576782
5.227;-0.0582886
5.228;-0.0585938
5.229;-0.0592041
5.23;-0.0595093
5.231;-0.0598145
5.232;-0.0595093
5.233;-0.0592041
5.234;-0.0582886
5.235;-0.0576782
5.236;-0.0570679
5.237;-0.0564575
5.238;-0.0558472
5.239;-0.0552368
5.24;-0.0543213
5.241;-0.0534058
5.242;-0.0524902
5.243;-0.0515747
5.244;-0.0509644
5.245;-0.050354
5.246;-0.0497437
5.247;-0.0494385
5.248;-0.0491333
5.249;-0.0485229
5.25;-0.0476074
5.251;-0.0466919
5.252;-0.0457764
5.253;-0.0448608
5.254;-0.0442505
5.255;-0.0439453
5.256;-0.0439453
5.257;-0.0445557
5.258;-0.0457764
5.259;-0.0473022
5.26;-0.0488281
5.261;-0.0506592
5.262;-0.0521851
5.263;-0.0534058
5.264;-0.0546265
5.265;-0.0549316
5.266;-0.0552368
5.267;-0.0549316
5.268;-0.0546265
5.269;-0.0540161
5.27;-0.0537109
5.271;-0.0531006
5.272;-0.0524902
5.273;-0.0521851
5.274;-0.0515747
5.275;-0.0509644
5.276;-0.0500488
5.277;-0.0491333
5.278;-0.0479126
5.279;-0.0463867
5.28;-0.0448608
5.281;-0.0430298
5.282;-0.0415039
5.283;-0.0402832
5.284;-0.0396729
5.285;-0.0393677
5.286;-0.0393677
5.287;-0.0396729
5.288;-0.039978
5.289;-0.0402832
5.29;-0.0408936
5.291;-0.0415039
5.292;-0.0424194
5.293;-0.0430298
5.294;-0.043335
5.295;-0.043335
5.296;-0.0436401
5.297;-0.0439453
5.298;-0.0442505
5.299;-0.0445557
5.3;-0.045166
5.301;-0.0454712
5.302;-0.0457764
5.303;-0.0457764
5.304;-0.045166
5.305;-0.0445557
5.306;-0.0436401
5.307;-0.0427246
5.308;-0.0418091
5.309;-0.0411987
5.31;-0.0405884
5.311;-0.0402832
5.312;-0.0396729
5.313;-0.0390625
5.314;-0.0384521
5.315;-0.038147
5.316;-0.0378418
5.317;-0.0372314
5.318;-0.0369263
5.319;-0.0366211
5.32;-0.0363159
5.321;-0.0363159
5.322;-0.0363159
5.323;-0.0366211
5.324;-0.0369263
5.325;-0.0372314
5.326;-0.0375366
5.327;-0.038147
5.328;-0.0384521
5.329;-0.0393677
5.33;-0.0402832
5.331;-0.0411987
5.332;-0.0424194
5.333;-0.0430298
5.334;-0.0436401
5.335;-0.0436401
5.336;-0.0439453
5.337;-0.0439453
5.338;-0.0442505
5.339;-0.0448608
5.34;-0.0454712
5.341;-0.0466919
5.342;-0.0476074
5.343;-0.0485229
5.344;-0.0491333
5.345;-0.0488281
5.346;-0.0482178
5.347;-0.0473022
5.348;-0.0466919
5.349;-0.0460815
5.35;-0.0460815
5.351;-0.0457764
5.352;-0.0457764
5.353;-0.0457764
5.354;-0.0457764
5.355;-0.0460815
5.356;-0.0466919
5.357;-0.0469971
5.358;-0.0476074
5.359;-0.0476074
5.36;-0.0473022
5.361;-0.0469971
5.362;-0.0469971
5.363;-0.0473022
5.364;-0.0479126
5.365;-0.0485229
5.366;-0.0497437
5.367;-0.0512695
5.368;-0.0524902
5.369;-0.0540161
5.37;-0.055542
5.371;-0.0567627
5.372;-0.0579834
5.373;-0.0588989
5.374;-0.0595093
5.375;-0.0604248
5.376;-0.0610352
5.377;-0.0613403
5.378;-0.0613403
5.379;-0.0610352
5.38;-0.06073
5.381;-0.0601196
5.382;-0.0595093
5.383;-0.0585938
5.384;-0.0582886
5.385;-0.0576782
5.386;-0.0576782
5.387;-0.057373
5.388;-0.057373
5.389;-0.057373
5.39;-0.0570679
5.391;-0.0570679
5.392;-0.057373
5.393;-0.057373
5.394;-0.0576782
5.395;-0.0579834
5.396;-0.0579834
5.397;-0.0579834
5.398;-0.0579834
5.399;-0.0579834
5.4;-0.0576782
5.401;-0.057373
5.402;-0.0570679
5.403;-0.0564575
5.404;-0.0561523
5.405;-0.0558472
5.406;-0.055542
5.407;-0.0546265
5.408;-0.0537109
5.409;-0.0521851
5.41;-0.0509644
5.411;-0.0497437
5.412;-0.0488281
5.413;-0.0482178
5.414;-0.0479126
5.415;-0.0476074
5.416;-0.0473022
5.417;-0.0466919
5.418;-0.0460815
5.419;-0.0457764
5.42;-0.0454712
5.421;-0.0457764
5.422;-0.0460815
5.423;-0.0466919
5.424;-0.0469971
5.425;-0.0476074
5.426;-0.0482178
5.427;-0.0485229
5.428;-0.0485229
5.429;-0.0482178
5.43;-0.0479126
5.431;-0.0473022
5.432;-0.0466919
5.433;-0.0457764
5.434;-0.045166
5.435;-0.0445557
5.436;-0.0439453
5.437;-0.0436401
5.438;-0.0436401
5.439;-0.0436401
5.44;-0.0436401
5.441;-0.043335
5.442;-0.0427246
5.443;-0.0421143
5.444;-0.0415039
5.445;-0.0405884
5.446;-0.039978
5.447;-0.0393677
5.448;-0.0390625
5.449;-0.0387573
5.45;-0.0384521
5.451;-0.038147
5.452;-0.0375366
5.453;-0.0375366
5.454;-0.0378418
5.455;-0.038147
5.456;-0.0390625
5.457;-0.0402832
5.458;-0.0415039
5.459;-0.043335
5.46;-0.0448608
5.461;-0.0466919
5.462;-0.0485229
5.463;-0.0500488
5.464;-0.0521851
5.465;-0.0537109
5.466;-0.0549316
5.467;-0.0558472
5.468;-0.0561523
5.469;-0.0564575
5.47;-0.0564575
5.471;-0.0564575
5.472;-0.0564575
5.473;-0.0564575
5.474;-0.0561523
5.475;-0.055542
5.476;-0.0546265
5.477;-0.0534058
5.478;-0.0518799
5.479;-0.0497437
5.48;-0.0479126
5.481;-0.0457764
5.482;-0.0442505
5.483;-0.0430298
5.484;-0.0424194
5.485;-0.0421143
5.486;-0.0418091
5.487;-0.0418091
5.488;-0.0418091
5.489;-0.0421143
5.49;-0.0424194
5.491;-0.0430298
5.492;-0.043335
5.493;-0.0439453
5.494;-0.0445557
5.495;-0.045166
5.496;-0.0457764
5.497;-0.0463867
5.498;-0.0469971
5.499;-0.0473022
5.5;-0.0476074
5.501;-0.0476074
5.502;-0.0476074
5.503;-0.0473022
5.504;-0.0466919
5.505;-0.0460815
5.506;-0.045166
5.507;-0.0442505
5.508;-0.043335
5.509;-0.0424194
5.51;-0.0415039
5.511;-0.0408936
5.512;-0.039978
5.513;-0.0387573
5.514;-0.0372314
5.515;-0.0357056
5.516;-0.0341797
5.517;-0.0326538
5.518;-0.0311279
5.519;-0.0296021
5.52;-0.0283813
5.521;-0.0271606
5.522;-0.0262451
5.523;-0.0256348
5.524;-0.0247192
5.525;-0.0241089
5.526;-0.0234985
5.527;-0.0231934
5.528;-0.022583
5.529;-0.0219727
5.53;-0.0213623
5.531;-0.0204468
5.532;-0.0195312
5.533;-0.0183105
5.534;-0.0167847
5.535;-0.0149536
5.536;-0.0128174
5.537;-0.010376
5.538;-0.00762939
5.539;-0.00427246
5.54;-0.000915527
5.541;0.00274658
5.542;0.00640869
5.543;0.0100708
5.544;0.0137329
5.545;0.0167847
5.546;0.0198364
5.547;0.022583
5.548;0.0250244
5.549;0.0274658
5.55;0.0302124
5.551;0.0326538
5.552;0.0354004
5.553;0.0378418
5.554;0.0402832
5.555;0.0427246
5.556;0.0448608
5.557;0.0469971
5.558;0.0494385
5.559;0.0518799
5.56;0.0546265
5.561;0.057373
5.562;0.0601196
5.563;0.0631714
5.564;0.065918
5.565;0.0683594
5.566;0.0708008
5.567;0.0726318
5.568;0.0738525
5.569;0.0744629
5.57;0.0744629
5.571;0.0738525
5.572;0.072937
5.573;0.071106
5.574;0.0686646
5.575;0.0656128
5.576;0.0616455
5.577;0.057373
5.578;0.0524902
5.579;0.0473022
5.58;0.0415039
5.581;0.0360107
5.582;0.0305176
5.583;0.0250244
5.584;0.0198364
5.585;0.0149536
5.586;0.0106812
5.587;0.00640869
5.588;0.00274658
5.589;-0.000305176
5.59;-0.00305176
5.591;-0.00518799
5.592;-0.00701904
5.593;-0.00854492
5.594;-0.0100708
5.595;-0.0119019
5.596;-0.0140381
5.597;-0.0161743
5.598;-0.0186157
5.599;-0.0213623
5.6;-0.0241089
5.601;-0.0268555
5.602;-0.0296021
5.603;-0.0326538
5.604;-0.0363159
5.605;-0.039978
5.606;-0.0436401
5.607;-0.0476074
5.608;-0.0512695
5.609;-0.0552368
5.61;-0.0588989
5.611;-0.062561
5.612;-0.0656128
5.613;-0.0683594
5.614;-0.0704956
5.615;-0.0723267
5.616;-0.0738525
5.617;-0.0750732
5.618;-0.0759888
5.619;-0.0769043
5.62;-0.0778198
5.621;-0.0784302
5.622;-0.0793457
5.623;-0.0796509
5.624;-0.0799561
5.625;-0.0799561
5.626;-0.0802612
5.627;-0.0802612
5.628;-0.0802612
5.629;-0.0802612
5.63;-0.0802612
5.631;-0.0805664
5.632;-0.0805664
5.633;-0.0808716
5.634;-0.0811768
5.635;-0.0814819
5.636;-0.0817871
5.637;-0.0817871
5.638;-0.0820923
5.639;-0.0827026
5.64;-0.0839233
5.641;-0.0863647
5.642;-0.0894165
5.643;-0.0933838
5.644;-0.098877
5.645;-0.105591
5.646;-0.113525
5.647;-0.122681
5.648;-0.132751
5.649;-0.143433
5.65;-0.154114
5.651;-0.164185
5.652;-0.17334
5.653;-0.180664
5.654;-0.186157
5.655;-0.188599
5.656;-0.188599
5.657;-0.184937
5.658;-0.177917
5.659;-0.166931
5.66;-0.151978
5.661;-0.132141
5.662;-0.107117
5.663;-0.0759888
5.664;-0.038147
5.665;0.00701904
5.666;0.0604248
5.667;0.12146
5.668;0.190125
5.669;0.266724
5.67;0.350952
5.671;0.44281
5.672;0.541687
5.673;0.646362
5.674;0.754395
5.675;0.863342
5.676;0.970459
5.677;1.07391
5.678;1.17157
5.679;1.26221
5.68;1.34521
5.681;1.41907
5.682;1.48346
5.683;1.53717
5.684;1.57898
5.685;1.60767
5.686;1.62201
5.687;1.62048
5.688;1.60248
5.689;1.56677
5.69;1.51367
5.691;1.44379
5.692;1.35834
5.693;1.25946
5.694;1.1496
5.695;1.03027
5.696;0.904541
5.697;0.774841
5.698;0.643616
5.699;0.513306
5.7;0.385742
5.701;0.262451
5.702;0.144653
5.703;0.0335693
5.704;-0.0695801
5.705;-0.163574
5.706;-0.247803
5.707;-0.321655
5.708;-0.384521
5.709;-0.437012
5.71;-0.478821
5.711;-0.510559
5.712;-0.532837
5.713;-0.545654
5.714;-0.550537
5.715;-0.548401
5.716;-0.539856
5.717;-0.526123
5.718;-0.508423
5.719;-0.487671
5.72;-0.464783
5.721;-0.440369
5.722;-0.415344
5.723;-0.389709
5.724;-0.364685
5.725;-0.340271
5.726;-0.317383
5.727;-0.296021
5.728;-0.276489
5.729;-0.258484
5.73;-0.242615
5.731;-0.228577
5.732;-0.215759
5.733;-0.205078
5.734;-0.195618
5.735;-0.187683
5.736;-0.181274
5.737;-0.175781
5.738;-0.171814
5.739;-0.168457
5.74;-0.166321
5.741;-0.165405
5.742;-0.165405
5.743;-0.166321
5.744;-0.167847
5.745;-0.169373
5.746;-0.170898
5.747;-0.172424
5.748;-0.173035
5.749;-0.173645
5.75;-0.17395
5.751;-0.173645
5.752;-0.17334
5.753;-0.172729
5.754;-0.172119
5.755;-0.171204
5.756;-0.170288
5.757;-0.169067
5.758;-0.167236
5.759;-0.165405
5.76;-0.162964
5.761;-0.160217
5.762;-0.15686
5.763;-0.153503
5.764;-0.150452
5.765;-0.1474
5.766;-0.144348
5.767;-0.141602
5.768;-0.13916
5.769;-0.137024
5.77;-0.134888
5.771;-0.132751
5.772;-0.131226
5.773;-0.129395
5.774;-0.127869
5.775;-0.126648
5.776;-0.125427
5.777;-0.124512
5.778;-0.123901
5.779;-0.123596
5.78;-0.123596
5.781;-0.123291
5.782;-0.122986
5.783;-0.122681
5.784;-0.12207
5.785;-0.12146
5.786;-0.12085
5.787;-0.120544
5.788;-0.120239
5.789;-0.119934
5.79;-0.119629
5.791;-0.119324
5.792;-0.118408
5.793;-0.117493
5.794;-0.115967
5.795;-0.114441
5.796;-0.112305
5.797;-0.110474
5.798;-0.108337
5.799;-0.106201
5.8;-0.104065
5.801;-0.102539
5.802;-0.100708
5.803;-0.098877
5.804;-0.0970459
5.805;-0.0949097
5.806;-0.0924683
5.807;-0.0900269
5.808;-0.0872803
5.809;-0.0842285
5.81;-0.0817871
5.811;-0.0796509
5.812;-0.0778198
5.813;-0.0762939
5.814;-0.0750732
5.815;-0.0738525
5.816;-0.072937
5.817;-0.0723267
5.818;-0.0720215
5.819;-0.0720215
5.82;-0.0717163
5.821;-0.0714111
5.822;-0.0708008
5.823;-0.0704956
5.824;-0.0695801
5.825;-0.0686646
5.826;-0.0671387
5.827;-0.0656128
5.828;-0.0640869
5.829;-0.0622559
5.83;-0.0601196
5.831;-0.0576782
5.832;-0.0552368
5.833;-0.0521851
5.834;-0.0491333
5.835;-0.0457764
5.836;-0.0424194
5.837;-0.0387573
5.838;-0.03479
5.839;-0.0308228
5.84;-0.0268555
5.841;-0.0231934
5.842;-0.0195312
5.843;-0.0161743
5.844;-0.0134277
5.845;-0.0109863
5.846;-0.0088501
5.847;-0.00701904
5.848;-0.00518799
5.849;-0.00335693
5.85;-0.00152588
5.851;0
5.852;0.00183105
5.853;0.00335693
5.854;0.00549316
5.855;0.00762939
5.856;0.0100708
5.857;0.0128174
5.858;0.015564
5.859;0.0186157
5.86;0.0216675
5.861;0.0250244
5.862;0.0280762
5.863;0.0311279
5.864;0.0338745
5.865;0.0366211
5.866;0.0396729
5.867;0.0427246
5.868;0.0454712
5.869;0.0485229
5.87;0.0509644
5.871;0.0527954
5.872;0.0546265
5.873;0.055542
5.874;0.0564575
5.875;0.0567627
5.876;0.0567627
5.877;0.0570679
5.878;0.057373
5.879;0.0576782
5.88;0.0582886
5.881;0.0588989
5.882;0.0592041
5.883;0.0598145
5.884;0.0598145
5.885;0.0592041
5.886;0.0579834
5.887;0.0564575
5.888;0.0543213
5.889;0.0518799
5.89;0.0494385
5.891;0.0469971
5.892;0.0445557
5.893;0.0427246
5.894;0.0405884
5.895;0.038147
5.896;0.0354004
5.897;0.0320435
5.898;0.0280762
5.899;0.0241089
5.9;0.0198364
5.901;0.0158691
5.902;0.012207
5.903;0.00915527
5.904;0.00701904
5.905;0.00549316
5.906;0.00457764
5.907;0.00427246
5.908;0.00366211
5.909;0.00335693
5.91;0.00274658
5.911;0.00213623
5.912;0.0012207
5.913;0.000915527
5.914;0.000305176
5.915;0
5.916;-0.000305176
5.917;-0.000610352
5.918;-0.000610352
5.919;-0.000305176
5.92;-0.000610352
5.921;-0.000915527
5.922;-0.00152588
5.923;-0.00244141
5.924;-0.00366211
5.925;-0.00549316
5.926;-0.00762939
5.927;-0.0100708
5.928;-0.0125122
5.929;-0.0149536
5.93;-0.0170898
5.931;-0.0186157
5.932;-0.0201416
5.933;-0.0210571
5.934;-0.0219727
5.935;-0.022583
5.936;-0.0231934
5.937;-0.0238037
5.938;-0.0247192
5.939;-0.0256348
5.94;-0.0271606
5.941;-0.0289917
5.942;-0.0311279
5.943;-0.0332642
5.944;-0.0350952
5.945;-0.0366211
5.946;-0.038147
5.947;-0.0390625
5.948;-0.039978
5.949;-0.0408936
5.95;-0.0421143
5.951;-0.043335
5.952;-0.0448608
5.953;-0.0463867
5.954;-0.0479126
5.955;-0.0494385
5.956;-0.0509644
5.957;-0.0524902
5.958;-0.0537109
5.959;-0.0546265
5.96;-0.055542
5.961;-0.0561523
5.962;-0.0567627
5.963;-0.0570679
5.964;-0.057373
5.965;-0.0582886
5.966;-0.0588989
5.967;-0.0598145
5.968;-0.06073
5.969;-0.0610352
5.97;-0.0610352
5.971;-0.06073
5.972;-0.0601196
5.973;-0.0595093
5.974;-0.0588989
5.975;-0.0585938
5.976;-0.0588989
5.977;-0.0592041
5.978;-0.0595093
5.979;-0.0601196
5.98;-0.06073
5.981;-0.06073
5.982;-0.0604248
5.983;-0.0598145
5.984;-0.0588989
5.985;-0.0579834
5.986;-0.0570679
5.987;-0.0561523
5.988;-0.0552368
5.989;-0.0540161
5.99;-0.0527954
5.991;-0.0515747
5.992;-0.050354
5.993;-0.0488281
5.994;-0.0469971
5.995;-0.045166
5.996;-0.0430298
5.997;-0.0408936
5.998;-0.0387573
5.999;-0.0369263
6;-0.0354004
6.001;-0.0344849
6.002;-0.0338745
6.003;-0.0335693
6.004;-0.0338745
6.005;-0.0341797
6.006;-0.0350952
6.007;-0.0360107
6.008;-0.0369263
6.009;-0.0378418
6.01;-0.0390625
6.011;-0.0408936
6.012;-0.0427246
6.013;-0.0448608
6.014;-0.0469971
6.015;-0.0488281
6.016;-0.0506592
6.017;-0.0518799
6.018;-0.0527954
6.019;-0.0531006
6.02;-0.0531006
6.021;-0.0524902
6.022;-0.0515747
6.023;-0.050354
6.024;-0.0488281
6.025;-0.0473022
6.026;-0.0454712
6.027;-0.043335
6.028;-0.0415039
6.029;-0.039978
6.03;-0.0384521
6.031;-0.0372314
6.032;-0.0357056
6.033;-0.0344849
6.034;-0.0332642
6.035;-0.0323486
6.036;-0.0317383
6.037;-0.0314331
6.038;-0.0314331
6.039;-0.0317383
6.04;-0.0323486
6.041;-0.032959
6.042;-0.0335693
6.043;-0.0344849
6.044;-0.0354004
6.045;-0.0366211
6.046;-0.0378418
6.047;-0.0390625
6.048;-0.039978
6.049;-0.0411987
6.05;-0.0421143
6.051;-0.043335
6.052;-0.0445557
6.053;-0.0454712
6.054;-0.0463867
6.055;-0.0469971
6.056;-0.0466919
6.057;-0.0463867
6.058;-0.0460815
6.059;-0.0454712
6.06;-0.0454712
6.061;-0.0454712
6.062;-0.0457764
6.063;-0.0463867
6.064;-0.0466919
6.065;-0.0469971
6.066;-0.0466919
6.067;-0.0463867
6.068;-0.0457764
6.069;-0.045166
6.07;-0.0448608
6.071;-0.0448608
6.072;-0.045166
6.073;-0.0460815
6.074;-0.0469971
6.075;-0.0482178
6.076;-0.0491333
6.077;-0.0500488
6.078;-0.0506592
6.079;-0.0509644
6.08;-0.0512695
6.081;-0.0515747
6.082;-0.0521851
6.083;-0.0527954
6.084;-0.0534058
6.085;-0.0540161
6.086;-0.0546265
6.087;-0.0549316
6.088;-0.0549316
6.089;-0.0549316
6.09;-0.0546265
6.091;-0.0543213
6.092;-0.0534058
6.093;-0.0524902
6.094;-0.0515747
6.095;-0.0509644
6.096;-0.0506592
6.097;-0.0509644
6.098;-0.0512695
6.099;-0.0518799
6.1;-0.0527954
6.101;-0.0537109
6.102;-0.0546265
6.103;-0.055542
6.104;-0.0564575
6.105;-0.0570679
6.106;-0.0579834
6.107;-0.0588989
6.108;-0.0601196
6.109;-0.0613403
6.11;-0.0628662
6.111;-0.0640869
6.112;-0.0653076
6.113;-0.0665283
6.114;-0.0671387
6.115;-0.067749
6.116;-0.0683594
6.117;-0.0686646
6.118;-0.0692749
6.119;-0.0692749
6.12;-0.0695801
6.121;-0.0692749
6.122;-0.0692749
6.123;-0.0692749
6.124;-0.0692749
6.125;-0.0692749
6.126;-0.0689697
6.127;-0.0686646
6.128;-0.0680542
6.129;-0.0674438
6.13;-0.0665283
6.131;-0.0653076
6.132;-0.0640869
6.133;-0.0628662
6.134;-0.0616455
6.135;-0.0604248
6.136;-0.0595093
6.137;-0.0585938
6.138;-0.057373
6.139;-0.0567627
6.14;-0.0561523
6.141;-0.0558472
6.142;-0.0558472
6.143;-0.0558472
6.144;-0.0558472
6.145;-0.0561523
6.146;-0.0570679
6.147;-0.0585938
6.148;-0.0601196
6.149;-0.062561
6.15;-0.0646973
6.151;-0.0668335
6.152;-0.0692749
6.153;-0.071106
6.154;-0.0726318
6.155;-0.0738525
6.156;-0.0747681
6.157;-0.0753784
6.158;-0.0759888
6.159;-0.0762939
6.16;-0.0762939
6.161;-0.0756836
6.162;-0.0747681
6.163;-0.0738525
6.164;-0.0726318
6.165;-0.0714111
6.166;-0.0698853
6.167;-0.0686646
6.168;-0.0674438
6.169;-0.0668335
6.17;-0.0662231
6.171;-0.0662231
6.172;-0.0665283
6.173;-0.0671387
6.174;-0.0683594
6.175;-0.0695801
6.176;-0.071106
6.177;-0.072937
6.178;-0.0747681
6.179;-0.0765991
6.18;-0.0787354
6.181;-0.0808716
6.182;-0.0830078
6.183;-0.085144
6.184;-0.0869751
6.185;-0.0881958
6.186;-0.0891113
6.187;-0.0894165
6.188;-0.0894165
6.189;-0.0888062
6.19;-0.0878906
6.191;-0.0860596
6.192;-0.0839233
6.193;-0.0814819
6.194;-0.0793457
6.195;-0.0775146
6.196;-0.0753784
6.197;-0.0738525
6.198;-0.0717163
6.199;-0.0698853
6.2;-0.0680542
6.201;-0.0662231
6.202;-0.0643921
6.203;-0.0628662
6.204;-0.0613403
6.205;-0.0601196
6.206;-0.0592041
6.207;-0.0585938
6.208;-0.0582886
6.209;-0.0588989
6.21;-0.0601196
6.211;-0.0616455
6.212;-0.0628662
6.213;-0.0640869
6.214;-0.0646973
6.215;-0.0653076
6.216;-0.0653076
6.217;-0.0650024
6.218;-0.0646973
6.219;-0.0643921
6.22;-0.0640869
6.221;-0.0643921
6.222;-0.0653076
6.223;-0.0665283
6.224;-0.067749
6.225;-0.0689697
6.226;-0.0698853
6.227;-0.0704956
6.228;-0.0708008
6.229;-0.071106
6.23;-0.071106
6.231;-0.071106
6.232;-0.071106
6.233;-0.0708008
6.234;-0.0708008
6.235;-0.0704956
6.236;-0.0708008
6.237;-0.0708008
6.238;-0.071106
6.239;-0.0714111
6.24;-0.0717163
6.241;-0.0717163
6.242;-0.0714111
6.243;-0.071106
6.244;-0.0704956
6.245;-0.0701904
6.246;-0.0695801
6.247;-0.0692749
6.248;-0.0689697
6.249;-0.0686646
6.25;-0.0686646
6.251;-0.0686646
6.252;-0.0686646
6.253;-0.0689697
6.254;-0.0686646
6.255;-0.0683594
6.256;-0.067749
6.257;-0.0668335
6.258;-0.0656128
6.259;-0.0637817
6.26;-0.0619507
6.261;-0.0595093
6.262;-0.0570679
6.263;-0.0540161
6.264;-0.0512695
6.265;-0.0482178
6.266;-0.0445557
6.267;-0.0405884
6.268;-0.0357056
6.269;-0.0305176
6.27;-0.0253296
6.271;-0.0198364
6.272;-0.0149536
6.273;-0.0100708
6.274;-0.00549316
6.275;-0.00183105
6.276;0.0012207
6.277;0.00335693
6.278;0.00457764
6.279;0.00549316
6.28;0.00610352
6.281;0.00671387
6.282;0.00701904
6.283;0.00762939
6.284;0.00793457
6.285;0.00854492
6.286;0.0088501
6.287;0.00946045
6.288;0.010376
6.289;0.0112915
6.29;0.0125122
6.291;0.0140381
6.292;0.015564
6.293;0.017395
6.294;0.0195312
6.295;0.0219727
6.296;0.0244141
6.297;0.0265503
6.298;0.0289917
6.299;0.0311279
6.3;0.032959
6.301;0.0344849
6.302;0.0357056
6.303;0.0363159
6.304;0.0363159
6.305;0.0357056
6.306;0.0344849
6.307;0.0323486
6.308;0.0299072
6.309;0.0268555
6.31;0.0231934
6.311;0.0192261
6.312;0.0149536
6.313;0.010376
6.314;0.00579834
6.315;0.00152588
6.316;-0.00274658
6.317;-0.00640869
6.318;-0.00946045
6.319;-0.0119019
6.32;-0.0137329
6.321;-0.015564
6.322;-0.0170898
6.323;-0.0180054
6.324;-0.0189209
6.325;-0.0192261
6.326;-0.0198364
6.327;-0.0201416
6.328;-0.0210571
6.329;-0.0222778
6.33;-0.0241089
6.331;-0.0265503
6.332;-0.0296021
6.333;-0.0332642
6.334;-0.0372314
6.335;-0.0411987
6.336;-0.045166
6.337;-0.0494385
6.338;-0.0534058
6.339;-0.0576782
6.34;-0.0616455
6.341;-0.0656128
6.342;-0.0698853
6.343;-0.0738525
6.344;-0.0778198
6.345;-0.0817871
6.346;-0.0854492
6.347;-0.0891113
6.348;-0.0918579
6.349;-0.0939941
6.35;-0.09552
6.351;-0.0961304
6.352;-0.0967407
6.353;-0.0970459
6.354;-0.0973511
6.355;-0.0973511
6.356;-0.0976562
6.357;-0.0979614
6.358;-0.0982666
6.359;-0.0991821
6.36;-0.100098
6.361;-0.101013
6.362;-0.102234
6.363;-0.10376
6.364;-0.105286
6.365;-0.106812
6.366;-0.108337
6.367;-0.109863
6.368;-0.111389
6.369;-0.11322
6.37;-0.115356
6.371;-0.117798
6.372;-0.120544
6.373;-0.124207
6.374;-0.128784
6.375;-0.134277
6.376;-0.141296
6.377;-0.149231
6.378;-0.157776
6.379;-0.167542
6.38;-0.177612
6.381;-0.187988
6.382;-0.198059
6.383;-0.206909
6.384;-0.214233
6.385;-0.219421
6.386;-0.221558
6.387;-0.220947
6.388;-0.21698
6.389;-0.209656
6.39;-0.198975
6.391;-0.184326
6.392;-0.1651
6.393;-0.140991
6.394;-0.111084
6.395;-0.0747681
6.396;-0.0311279
6.397;0.020752
6.398;0.0805664
6.399;0.148315
6.4;0.223694
6.401;0.306702
6.402;0.396729
6.403;0.493774
6.404;0.596313
6.405;0.702515
6.406;0.809937
6.407;0.916138
6.408;1.01837
6.409;1.11481
6.41;1.20483
6.411;1.28693
6.412;1.36047
6.413;1.42487
6.414;1.47888
6.415;1.52161
6.416;1.55212
6.417;1.5686
6.418;1.56982
6.419;1.55487
6.42;1.52283
6.421;1.474
6.422;1.40839
6.423;1.32751
6.424;1.23291
6.425;1.12701
6.426;1.01227
6.427;0.890808
6.428;0.765686
6.429;0.638733
6.43;0.512085
6.431;0.387878
6.432;0.267029
6.433;0.151062
6.434;0.0415039
6.435;-0.06073
6.436;-0.154724
6.437;-0.239563
6.438;-0.314941
6.439;-0.379639
6.44;-0.434265
6.441;-0.47821
6.442;-0.51239
6.443;-0.537109
6.444;-0.552979
6.445;-0.560913
6.446;-0.561829
6.447;-0.55603
6.448;-0.545044
6.449;-0.529785
6.45;-0.510559
6.451;-0.488892
6.452;-0.465088
6.453;-0.440369
6.454;-0.415649
6.455;-0.39093
6.456;-0.367432
6.457;-0.344849
6.458;-0.323792
6.459;-0.303955
6.46;-0.285339
6.461;-0.267944
6.462;-0.252075
6.463;-0.238037
6.464;-0.225525
6.465;-0.215149
6.466;-0.206604
6.467;-0.19989
6.468;-0.194702
6.469;-0.190735
6.47;-0.188293
6.471;-0.187073
6.472;-0.186462
6.473;-0.187073
6.474;-0.187988
6.475;-0.188904
6.476;-0.19043
6.477;-0.19165
6.478;-0.192871
6.479;-0.193481
6.48;-0.193787
6.481;-0.194092
6.482;-0.194092
6.483;-0.193481
6.484;-0.192261
6.485;-0.190735
6.486;-0.188599
6.487;-0.185547
6.488;-0.182495
6.489;-0.179138
6.49;-0.175781
6.491;-0.172424
6.492;-0.169373
6.493;-0.166321
6.494;-0.163879
6.495;-0.161743
6.496;-0.159912
6.497;-0.158691
6.498;-0.157776
6.499;-0.157166
6.5;-0.15686
6.501;-0.15686
6.502;-0.157166
6.503;-0.157471
6.504;-0.158386
6.505;-0.159302
6.506;-0.159912
6.507;-0.160522
6.508;-0.160522
6.509;-0.159912
6.51;-0.158386
6.511;-0.15686
6.512;-0.154419
6.513;-0.151978
6.514;-0.148621
6.515;-0.144958
6.516;-0.140991
6.517;-0.136719
6.518;-0.132141
6.519;-0.127869
6.52;-0.123596
6.521;-0.119324
6.522;-0.115662
6.523;-0.111694
6.524;-0.108337
6.525;-0.104675
6.526;-0.101624
6.527;-0.098877
6.528;-0.0967407
6.529;-0.0949097
6.53;-0.0933838
6.531;-0.0924683
6.532;-0.0918579
6.533;-0.0918579
6.534;-0.0918579
6.535;-0.0921631
6.536;-0.0927734
6.537;-0.0933838
6.538;-0.093689
6.539;-0.0939941
6.54;-0.0942993
6.541;-0.0942993
6.542;-0.0942993
6.543;-0.0942993
6.544;-0.0939941
6.545;-0.093689
6.546;-0.0933838
6.547;-0.0927734
6.548;-0.0921631
6.549;-0.0915527
6.55;-0.0906372
6.551;-0.0891113
6.552;-0.0872803
6.553;-0.0854492
6.554;-0.0830078
6.555;-0.0799561
6.556;-0.0772095
6.557;-0.0741577
6.558;-0.071106
6.559;-0.0680542
6.56;-0.0653076
6.561;-0.062561
6.562;-0.0598145
6.563;-0.0564575
6.564;-0.0534058
6.565;-0.050354
6.566;-0.0476074
6.567;-0.0448608
6.568;-0.0424194
6.569;-0.039978
6.57;-0.038147
6.571;-0.0363159
6.572;-0.03479
6.573;-0.0332642
6.574;-0.0311279
6.575;-0.0289917
6.576;-0.0268555
6.577;-0.0247192
6.578;-0.0228882
6.579;-0.020752
6.58;-0.0189209
6.581;-0.0170898
6.582;-0.0149536
6.583;-0.0125122
6.584;-0.0100708
6.585;-0.00732422
6.586;-0.00457764
6.587;-0.00152588
6.588;0.00152588
6.589;0.00488281
6.59;0.00823975
6.591;0.0112915
6.592;0.0146484
6.593;0.0177002
6.594;0.0204468
6.595;0.0231934
6.596;0.0253296
6.597;0.0274658
6.598;0.0292969
6.599;0.0311279
6.6;0.0326538
6.601;0.0341797
6.602;0.0357056
6.603;0.0372314
6.604;0.0384521
6.605;0.0393677
6.606;0.039978
6.607;0.039978
6.608;0.0396729
6.609;0.0390625
6.61;0.0384521
6.611;0.0378418
6.612;0.0372314
6.613;0.0369263
6.614;0.0369263
6.615;0.0363159
6.616;0.0354004
6.617;0.0338745
6.618;0.0317383
6.619;0.0292969
6.62;0.0265503
6.621;0.0241089
6.622;0.0222778
6.623;0.020752
6.624;0.0198364
6.625;0.0192261
6.626;0.0183105
6.627;0.0170898
6.628;0.0158691
6.629;0.0146484
6.63;0.0131226
6.631;0.0115967
6.632;0.010376
6.633;0.00946045
6.634;0.0088501
6.635;0.00854492
6.636;0.00854492
6.637;0.00823975
6.638;0.00793457
6.639;0.00762939
6.64;0.00701904
6.641;0.00640869
6.642;0.00579834
6.643;0.00549316
6.644;0.00488281
6.645;0.00427246
6.646;0.00366211
6.647;0.00274658
6.648;0.00213623
6.649;0.0012207
6.65;0.000305176
6.651;-0.000610352
6.652;-0.0012207
6.653;-0.00244141
6.654;-0.00335693
6.655;-0.00427246
6.656;-0.00549316
6.657;-0.00640869
6.658;-0.00793457
6.659;-0.00976562
6.66;-0.0115967
6.661;-0.0137329
6.662;-0.015564
6.663;-0.0177002
6.664;-0.0195312
6.665;-0.0216675
6.666;-0.0238037
6.667;-0.0256348
6.668;-0.0280762
6.669;-0.0302124
6.67;-0.0326538
6.671;-0.0354004
6.672;-0.0378418
6.673;-0.0402832
6.674;-0.0424194
6.675;-0.0445557
6.676;-0.0463867
6.677;-0.0485229
6.678;-0.050354
6.679;-0.0524902
6.68;-0.0543213
6.681;-0.0561523
6.682;-0.057373
6.683;-0.0585938
6.684;-0.0595093
6.685;-0.0604248
6.686;-0.0613403
6.687;-0.0622559
6.688;-0.0634766
6.689;-0.0650024
6.69;-0.0665283
6.691;-0.0686646
6.692;-0.0704956
6.693;-0.0720215
6.694;-0.0732422
6.695;-0.0741577
6.696;-0.0747681
6.697;-0.0750732
6.698;-0.0750732
6.699;-0.0747681
6.7;-0.0744629
6.701;-0.0738525
6.702;-0.0732422
6.703;-0.072937
6.704;-0.072937
6.705;-0.0732422
6.706;-0.0732422
6.707;-0.072937
6.708;-0.0723267
6.709;-0.0714111
6.71;-0.0701904
6.711;-0.0689697
6.712;-0.0680542
6.713;-0.0674438
6.714;-0.0665283
6.715;-0.065918
6.716;-0.0650024
6.717;-0.0640869
6.718;-0.0631714
6.719;-0.062561
6.72;-0.0619507
6.721;-0.0619507
6.722;-0.0616455
6.723;-0.0616455
6.724;-0.0613403
6.725;-0.0610352
6.726;-0.0601196
6.727;-0.0592041
6.728;-0.0579834
6.729;-0.0564575
6.73;-0.0549316
6.731;-0.0534058
6.732;-0.0524902
6.733;-0.0515747
6.734;-0.0512695
6.735;-0.0512695
6.736;-0.0512695
6.737;-0.0512695
6.738;-0.0509644
6.739;-0.0506592
6.74;-0.050354
6.741;-0.0500488
6.742;-0.050354
6.743;-0.0506592
6.744;-0.0509644
6.745;-0.0518799
6.746;-0.0531006
6.747;-0.0543213
6.748;-0.0558472
6.749;-0.057373
6.75;-0.0585938
6.751;-0.0598145
6.752;-0.0610352
6.753;-0.0619507
6.754;-0.0628662
6.755;-0.0631714
6.756;-0.0634766
6.757;-0.0631714
6.758;-0.062561
6.759;-0.0616455
6.76;-0.06073
6.761;-0.0595093
6.762;-0.0582886
6.763;-0.0570679
6.764;-0.055542
6.765;-0.0537109
6.766;-0.0521851
6.767;-0.050354
6.768;-0.0488281
6.769;-0.0476074
6.77;-0.0463867
6.771;-0.0454712
6.772;-0.0448608
6.773;-0.0442505
6.774;-0.0436401
6.775;-0.043335
6.776;-0.043335
6.777;-0.0439453
6.778;-0.0448608
6.779;-0.0460815
6.78;-0.0473022
6.781;-0.0482178
6.782;-0.0491333
6.783;-0.0497437
6.784;-0.0500488
6.785;-0.0506592
6.786;-0.0509644
6.787;-0.0515747
6.788;-0.0515747
6.789;-0.0518799
6.79;-0.0515747
6.791;-0.0509644
6.792;-0.0506592
6.793;-0.0497437
6.794;-0.0491333
6.795;-0.0488281
6.796;-0.0485229
6.797;-0.0485229
6.798;-0.0488281
6.799;-0.0491333
6.8;-0.0494385
6.801;-0.0497437
6.802;-0.0500488
6.803;-0.050354
6.804;-0.0509644
6.805;-0.0518799
6.806;-0.0527954
6.807;-0.0540161
6.808;-0.0558472
6.809;-0.0576782
6.81;-0.0595093
6.811;-0.0613403
6.812;-0.0628662
6.813;-0.0640869
6.814;-0.0650024
6.815;-0.065918
6.816;-0.0665283
6.817;-0.0671387
6.818;-0.0674438
6.819;-0.067749
6.82;-0.067749
6.821;-0.0674438
6.822;-0.0671387
6.823;-0.0665283
6.824;-0.0662231
6.825;-0.065918
6.826;-0.065918
6.827;-0.065918
6.828;-0.065918
6.829;-0.065918
6.83;-0.065918
6.831;-0.0656128
6.832;-0.0656128
6.833;-0.0653076
6.834;-0.0653076
6.835;-0.0653076
6.836;-0.0656128
6.837;-0.065918
6.838;-0.065918
6.839;-0.0662231
6.84;-0.0665283
6.841;-0.0665283
6.842;-0.0665283
6.843;-0.0662231
6.844;-0.0662231
6.845;-0.0662231
6.846;-0.0662231
6.847;-0.0665283
6.848;-0.0665283
6.849;-0.0665283
6.85;-0.0665283
6.851;-0.0662231
6.852;-0.065918
6.853;-0.065918
6.854;-0.0656128
6.855;-0.0653076
6.856;-0.0646973
6.857;-0.0643921
6.858;-0.0640869
6.859;-0.0637817
6.86;-0.0637817
6.861;-0.0637817
6.862;-0.0637817
6.863;-0.0643921
6.864;-0.0646973
6.865;-0.0653076
6.866;-0.0656128
6.867;-0.0656128
6.868;-0.0653076
6.869;-0.0646973
6.87;-0.0637817
6.871;-0.0622559
6.872;-0.0610352
6.873;-0.0598145
6.874;-0.0588989
6.875;-0.0582886
6.876;-0.0579834
6.877;-0.0582886
6.878;-0.0585938
6.879;-0.0592041
6.88;-0.0598145
6.881;-0.0601196
6.882;-0.06073
6.883;-0.0610352
6.884;-0.0613403
6.885;-0.0616455
6.886;-0.0619507
6.887;-0.0628662
6.888;-0.0637817
6.889;-0.0650024
6.89;-0.0662231
6.891;-0.0674438
6.892;-0.0683594
6.893;-0.0692749
6.894;-0.0701904
6.895;-0.0704956
6.896;-0.0708008
6.897;-0.0704956
6.898;-0.0701904
6.899;-0.0692749
6.9;-0.0683594
6.901;-0.0674438
6.902;-0.0662231
6.903;-0.0650024
6.904;-0.0640869
6.905;-0.0628662
6.906;-0.0616455
6.907;-0.06073
6.908;-0.0598145
